#exp_cfg={"servo_angle": 0.0, "laser_lim": 100.0, "servo_angle_to": 18.0, "laser_wup": 0.0, "bt_dev": "EnSpectr-25AE3", "laser_wdn_max": 0.0, "frames": 10.0, "servo_used": 0, "servo_calib_use": 0, "laser_wdn_min": 0.0, "servo_pix_from": 90.0, "cooler_tout": 300.0, "servo_angle_from": 0.0, "servo_calib": "[-1.9174921013161362e-09, 3.9322238269163779e-05, -0.27385609119055809, 653.59552119713567]", "laser_autoctl": 0, "servo_pix_to": 3682.0, "laser_pw": 100.0, "cooler_on": 0, "laser_volt": 4.0, "cooler_autoctl": 0, "cooler_curr": 70.0, "cooler_startup": 10.0, "laser_fixed_pw": 0, "gain": 1.3, "offset": 2.53059635486, "servo_calib_degree": 3.0, "laser_curr": 55.0, "shutter": 8200.0, "servo_calib_step": 1.0, "laser_fixed_curr": 0, "exp": 2000.0, "ccd_volt": 4.7, "bt_addr": "00:06:66:62:5A:E3", "servo_delay": 500.0, "laser_autooff": 1}
#proc_cfg={"flat_auto_wnd": 200.0, "flat_auto_fr": 200.0, "flat_auto_shift": 5.0, "yconv": 1, "flatten": 1, "flatten_strength": 100.0, "xfrom": 300.0, "auto_max_frame": 2000.0, "auto_signal": 48000.0, "flat_auto_tol": 0.1, "autoclip": 1, "xrel_range": 0.0, "flat_auto_to": 4000.0, "intensity_adj": 1.0, "xrel": 7852.0, "rmhot": 1, "flat_auto_slit": 4.999999999999997, "auto_ini_exp": 300.0, "auto_off": 0, "xto": 2860.0, "flat_auto_ref": "", "flat_auto_rank": 1, "autobackg": 0, "xrel_adj": 0.0, "auto_black_lvl": 1, "base_wnd": 100.0, "sub_baseline": 0, "xconv": 2, "auto_max_exp": 1000.0, "auto_total_exp": 10000.0, "auto_exp": 0, "rmripple": 0, "black_lvl": 8221.4375, "shutter_clip_adj": 0.0, "auto_bckg": 0, "flat_auto_thr": 0.9, "subbackg": 1}
316.8218498245369 13289.067743726113
317.89969571804795 13293.3331874545
318.977263876126 13256.336813401756
320.05455438786703 13215.170935241575
321.1315673423287 13194.353280559288
322.2083028285215 13207.732602156306
323.2847609354267 13113.199644432927
324.3609417519747 13027.219565084386
325.43684536705587 13057.778209737617
326.5124718695279 12981.070975979957
327.58782134820103 13015.245723372402
328.66289389184385 12889.272546569566
329.7376895891921 12797.248563287449
330.8122085289342 12853.095832373645
331.88645079971866 12797.27260245517
332.9604164901575 12765.014157078638
334.03410568881554 12753.809848606652
335.1075184842266 12846.437439525054
336.18065496487543 12683.781418515151
337.2535152192122 12634.948571719873
338.32609933564163 12704.817985907608
339.39840740253203 12645.953009537156
340.4704395082099 12499.084714766055
341.5421957409617 12619.183889518208
342.6136761890357 12648.259072467103
343.6848809406365 12526.924619401609
344.75581008392874 12467.955434882957
345.82646370703696 12455.2899308529
346.8968418980512 12421.168508916617
347.96694474501055 12422.69738494313
349.0367723359268 12380.625990404867
350.106324758759 12341.136595123226
351.1756021014353 12208.942020984367
352.2446044518383 12285.312053880385
353.31333189781435 12272.602546989297
354.38178452716966 12346.150815514782
355.449962427665 12287.113007071333
356.51786568702846 12264.396249284076
357.58549439294256 12305.856445669348
358.6528486330535 12231.829512822425
359.71992849496564 12159.750467895046
360.7867340662433 12265.21606965447
361.8532654344144 12187.224619274111
362.9195226869597 12222.95307675363
363.9855059113288 12103.043806578757
365.05121519492604 12086.336453985077
366.11665062511565 12128.16057328911
367.1818122892273 12156.217914202089
368.2467002745434 12076.639807988728
369.31131466831175 12126.775726026252
370.375655557742 12092.615810523785
371.4397230299983 12135.552898179974
372.5035171722102 12072.41548286167
373.5670380714637 12106.88178982729
374.6302858148101 12116.213153361023
375.6932604892554 12103.625163157873
376.7559621817709 12114.403048784163
377.81839097928605 12068.017967917254
378.8805469686886 12027.9998243852
379.94243023683157 11862.454837479667
381.0040408705263 11925.28070722101
382.0653789565458 11919.1125904814
383.1264445816196 11904.219236753579
384.1872378324406 11919.07153029816
385.2477587956637 11865.024425626716
386.3080075579037 11834.466835636236
387.3679842057336 11891.984254488994
388.4276888256918 11830.863132275805
389.48712150426945 11836.839905225668
390.54628232792857 11847.877681895681
391.6051713830857 11819.941759102721
392.66378875611736 11782.905531466024
393.7221345333637 11750.26895239985
394.7802088011249 11735.505080525994
395.838011645661 11783.27614709171
396.89554315319765 11685.937959504012
397.9528034099112 11676.146815556207
399.00979250194723 11684.33670199326
400.06651051541485 11660.396242772189
401.1229575363741 11571.551798100661
402.17913365085224 11569.30012912155
403.23503894483656 11563.710584088916
404.2906735042761 11417.457215331013
405.3460374150818 11447.00496389273
406.401130763119 11512.472818237557
407.455953634224 11448.559865956164
408.5105061141876 11418.864670491303
409.56478828876243 11377.327923385412
410.6188002436629 11376.424013825439
411.6725420645689 11356.878369298323
412.72601383711117 11324.673067183981
413.77921564689314 11430.798464532718
414.8321475794728 11305.29295766557
415.88480972036814 11245.916171141575
416.93720215506437 11397.898458712067
417.9893249690049 11221.0869655595
419.04117824759123 11177.327124296744
420.09276207619223 11225.287989025277
421.144076540133 11194.759636177652
422.1951217247042 11225.218606256825
423.24589771515275 11145.701910559816
424.2964045966928 11135.162531962153
425.34664245449494 11185.702901078128
426.3966113736933 11102.34373467324
427.4463114393875 11096.154946361474
428.49574273662984 11106.071959668612
429.5449053504417 11087.920264412836
430.5937993658026 11088.681705886931
431.6424248676558 11003.25719829297
432.6907819409007 11082.585937608223
433.73887067040596 10938.286064883858
434.7866911409965 11017.865429830006
435.8342434374608 10926.564132153773
436.88152764455117 10908.347805517831
437.9285438469724 10985.585889316895
438.9752921294057 10802.387473800036
440.02177257648145 10888.567637318136
441.06798527279716 10817.688669507217
442.1139303029122 10827.958367156618
443.1596077513459 10882.05261616888
444.2050177025794 10915.990272831717
445.25016024105753 10850.603023428197
446.2950354511886 10818.583655898847
447.33964341733736 10851.665188463645
448.383984223834 10776.231838295727
449.4280579549686 10779.743169415455
450.471864694995 10830.121752216424
451.5154045281306 10742.710105257642
452.5586775385509 10759.154438852473
453.60168381039693 10702.806245334408
454.64442342776783 10785.136618856332
455.6868964747264 10747.22663064676
456.7291030353008 10727.333150344191
457.77104319347563 10751.777766085022
458.8127170332027 10729.499886387941
459.854124638392 10757.255112926212
460.895266092919 10759.39848068477
461.93614148061897 10706.335665641347
462.97675088529104 10773.570738792692
464.01709439069236 10762.77851621874
465.0571720805492 10670.270736934926
466.0969840385442 10728.247316569581
467.1365303483253 10735.994024750702
468.17581109350067 10741.22306612695
469.2148263576437 10714.867350839817
470.2535762242878 10728.907007009471
471.29206077693016 10742.175194665917
472.33028009902773 10741.736961155051
473.3682342740012 10864.669946348824
474.40592338523857 10802.375621745863
475.4433475160804 10820.121078152042
476.4805067498364 10779.776144500796
477.51740116978 10870.043576947832
478.5540308591426 10914.109550866286
479.59039590112116 11021.806324006795
480.6264963788726 10992.47584923585
481.6623323755193 11146.481379783694
482.6979039741436 11134.206034800467
483.7332112577915 11263.544043316653
484.76825430947247 11286.477004349135
485.80303321215797 11476.153714043736
486.837548048783 11434.705865800133
487.8717989022425 11567.0007257996
488.90578585539697 11514.41464790457
489.9395089910686 11577.881733271122
490.97296839203955 11517.024008993983
492.00616414106116 11488.112441896157
493.0390963208429 11479.660341660552
494.0717650140559 11487.7340299827
495.10417030333883 11365.555680088546
496.1363122712901 11277.102036464086
497.16819100046814 11192.284469967546
498.1998065734024 11167.008865579988
499.2311590725767 11122.924807793346
500.26224858044407 10970.432842954673
501.2930751794156 10924.90194385553
502.3236389518679 10850.19239640412
503.35393998014115 10765.444809255654
504.38397834653733 10736.367191347315
505.4137541333221 10765.56755228347
506.4432674227228 10686.665649742328
507.4725182969323 10597.750635987366
508.5015068381035 10624.395873631456
509.53023312835467 10600.229901650495
510.55869724976765 10595.819195797203
511.58689928438434 10460.941459787904
512.6148393142121 10547.243134471179
513.6425174212218 10502.234162811708
514.6699336873462 10590.039294185328
515.6970881944835 10597.990044174818
516.7239810244901 10541.80104960802
517.7506122591931 10554.089169192885
518.7769819803761 10672.437106189203
519.8030902697901 10605.659318074506
520.8289372091476 10709.531350632064
521.8545228801249 10658.078284442096
522.8798473643619 10647.357491975765
523.9049107434621 10757.361627228312
524.9297130989908 10730.241620209837
525.9542545124805 10650.279670256095
526.9785350654201 10706.56389006216
528.0025548392696 10622.05290781317
529.0263139154504 10651.809300726014
530.0498123753423 10640.857338069995
531.073050300296 10596.062149372052
532.0960277716204 10530.930793362957
533.1187448705896 10515.93147425772
534.1412016784416 10465.452440063813
535.1633982763833 10455.756494627254
536.1853347455726 10480.13354089169
537.2070111671401 10347.096057409086
538.2284276221817 10370.803045740297
539.2495841917516 10276.644156842505
540.2704809568677 10265.646174368841
541.2911179985167 10296.657893120333
542.3114953976419 10208.514392458112
543.3316132351592 10202.026862346853
544.3514715919409 10136.771298104957
545.3710705488247 10144.728748853819
546.3904101866156 10109.221806202742
547.4094905860784 10090.21762495235
548.4283118279418 10093.200371298148
549.4468739929034 10035.323867421688
550.4651771616191 10051.243150977296
551.4832214147063 9997.91180037688
552.501006832761 10092.408112470046
553.5185334963226 10038.403159484475
554.5358014859103 10073.624743839338
555.5528108820035 10004.5534089659
556.5695617650363 9969.649147596094
557.5860542154242 10067.265249916243
558.6022883135283 10019.98390754287
559.6182641396881 9974.606896471641
560.6339817741991 10000.019968207327
561.6494412973225 10020.730809980112
562.6646427892883 10003.610627609622
563.6795863302796 9977.608719704502
564.694272000459 10012.94027349449
565.7086998799423 9997.193635996307
566.7228700488104 10033.44887218927
567.7367825871115 9902.889465223823
568.7504375748576 10070.660895440587
569.7638350920224 9995.982787442957
570.7769752185486 9976.282617428344
571.7898580343353 9944.743647291358
572.802483619258 9966.590474065393
573.8148520531431 9942.303459147177
574.8269634157932 9943.706297542705
575.8388177869692 9905.649767499695
576.8504152463938 9974.108424707425
577.8617558737587 10031.280975659047
578.8728397487175 10046.591641033805
579.883666950891 10055.940539134372
580.8942375598654 10122.239039479546
581.9045516551851 10229.61994723074
582.9146093163617 10245.153748734065
583.924410622878 10144.159332491869
584.9339556541727 10197.015982906036
585.9432444896538 10236.87743996851
586.9522772086875 10254.044020511423
587.9610538906127 10259.630182745375
588.9695746147318 10116.136909734529
589.9778394603054 10145.360593994303
590.985848506567 10233.94085118442
591.9936018327098 10140.621794828137
593.0010995178891 9993.391970891871
594.0083416412344 10011.802157808144
595.0153282818283 9920.864668280266
596.0220595187293 9920.367289309943
597.0285354309508 9883.774542891044
598.0347560974806 9827.345189982072
599.0407215972609 9803.074388135543
600.0464320092051 9768.305185637268
601.0518874121954 9724.12314070624
602.0570878850685 9695.077413570629
603.062033506636 9710.942318961661
604.0667243556636 9824.752584232088
605.0711605108936 9766.040133482533
606.0753420510264 9825.91584783919
607.0792690547278 9848.518679109387
608.082941600629 9847.871839789288
609.0863597673306 9731.827506563588
610.0895236333909 9841.259259838356
611.0924332773357 9898.43563425039
612.0950887776617 10022.162464614103
613.0974902128219 10068.53115782772
614.0996376612384 10126.17121238144
615.1015312013005 10193.51867614081
616.1031709113595 10248.047498876742
617.1045568697336 10323.296039893617
618.1056891547069 10444.23518997428
619.1065678445229 10531.395434296419
620.1071930173985 10736.118853387037
621.1075647515099 10695.711089397551
622.1076831250048 10782.126508580095
623.1075482159849 11007.364428818699
624.1071601025305 11058.20569586787
625.1065188626781 11135.228293652352
626.105624574433 11334.686293155968
627.1044773157682 11327.189452622852
628.1030771646128 11393.936563983221
629.1014241988742 11460.696066305089
630.0995184964158 11505.805052436443
631.0973601350688 11597.175857470827
632.0949491926294 11615.72023154733
633.0922857468631 11424.883358677795
634.089369875499 11534.142664883628
635.0862016562278 11541.410873453004
636.0827811667077 11371.960740203504
637.0791084845641 11362.13777854711
638.0751836873878 11191.013412920618
639.0710068527369 11167.177487186684
640.0665780581294 11031.60853380818
641.0618973810506 10871.60324041929
642.0569648989604 10767.219624443665
643.0517806892676 10626.395171200344
644.0463448293649 10434.300540187945
645.040657396592 10429.794904482555
646.0347184682723 10428.128728781427
647.0285281216875 10265.761701103536
648.0220864340772 10239.672259606801
649.0153934826558 10118.94052889625
650.0084493446047 10001.427399544167
651.0012540970674 9895.249040932069
651.9938078171526 9856.347697522362
652.9861105819346 9861.321901687614
653.9781624684565 9872.132852397757
654.9699635537254 9738.964198176629
655.9615139147136 9727.857477710866
656.9528136283589 9611.597713922512
657.9438627715699 9676.935147203096
658.9346614212154 9501.144482006517
659.925209654135 9385.336292018867
660.9155075471263 9482.798765808555
661.9055551769616 9323.107732184413
662.895352620375 9449.361436150662
663.8848999540678 9418.618141301511
664.8741972547068 9276.345365346562
665.863244598926 9292.155793913114
666.8520420633213 9350.50420680925
667.8405897244611 9345.438066905155
668.8288876588758 9228.916645594813
669.8169359430613 9206.45809211714
670.8047346534822 9199.401137685016
671.7922838665672 9247.196731415159
672.7795836587156 9228.428186311477
673.766634106285 9233.797885600392
674.7534352856092 9277.915360635201
675.7399872729766 9172.555796088058
676.7262901446538 9189.782965034738
677.712343976862 9177.8445354911
678.6981488457986 9247.079780473601
679.6837048276229 9230.195940742899
680.6690119984596 9227.830543907123
681.6540704344043 9171.403917000478
682.6388802115107 9153.63187377041
683.6234414058108 9184.413513016229
684.6077540932874 9092.193217284042
685.591818349907 9140.767044416209
686.575634251587 9069.954704281465
687.5592018742263 9075.329004347477
688.5425212936734 8982.605738978311
689.5255925857564 9028.417686236946
690.5084158262707 9013.888052643051
691.4909910909646 8977.015140834617
692.4733184555644 8864.238821221106
693.4553979957618 8840.844282692151
694.4372297872123 8880.187644522483
695.4188139055404 8784.345285299465
696.4001504263324 8820.635424435664
697.3812394251509 8848.062679212406
698.3620809775111 8771.036317577356
699.3426751589104 8848.217913686614
700.3230220448004 8756.562886983822
701.3031217106054 8818.773927825085
702.2829742317172 8787.309151311694
703.2625796834873 8837.270830630574
704.2419381412474 8740.466078468131
705.22104968028 8819.689251201495
706.1999143758458 8804.305520219626
707.178532303169 8748.375949810927
708.1569035374378 8883.759653733005
709.1350281538107 8900.321444765901
710.1129062274158 9006.928436748914
711.0905378333373 9050.282053193689
712.0679230466376 9036.959599396057
713.0450619423427 9228.646858266884
714.0219545954424 9201.46076772143
714.9986010808989 9347.747811852752
715.9750014736292 9498.288038046616
716.9511558485392 9563.543075992333
717.9270642804786 9633.298579408773
718.9027268442787 9701.129128753684
719.8781436147328 9725.474138996902
720.8533146666014 9762.61276241672
721.828240074612 9719.790108192017
722.8029199134635 9626.268132808344
723.7773542578125 9599.53383272149
724.751543182294 9545.38495620949
725.7254867615029 9352.94593733636
726.6991850700015 9352.803488528185
727.6726381823228 9236.005818304659
728.6458461729599 9183.389645356747
729.6188091163858 9202.733345103497
730.5915270870246 9181.856913245021
731.5640001592856 9053.579381876338
732.536228407529 9170.787037599093
733.5082119060917 9166.095985066935
734.4799507292755 9218.18355500322
735.4514449513481 9152.650302775046
736.4226946465496 9267.473654839316
737.3936998890786 9224.428573206276
738.3644607531078 9166.308233984144
739.3349773127793 9018.365804794064
740.3052496421951 9106.88530142003
741.27527781543 8958.268669511945
742.2450619065221 8874.647294765498
743.2146019894826 8848.742916775354
744.183898138288 8692.917900513674
745.1529504268801 8632.092597058476
746.1217589291682 8600.698270741572
747.0903237190341 8430.311364137768
748.058644870318 8521.430406363314
749.0267224568397 8412.962669338709
749.994556552374 8325.078914202344
750.9621472306771 8314.25580978464
751.9294945654583 8322.453290192501
752.8965986304011 8289.425003989205
753.8634594991636 8204.552097890124
754.8300772453586 8310.092415311286
755.7964519425768 8258.148070189874
756.762583664371 8188.338613944265
757.7284724842611 8237.424650035766
758.6941184757416 8226.395298452082
759.6595217122667 8235.013126384003
760.6246822672638 8244.294617395577
761.5896002141235 8182.43407435258
762.5542756262093 8155.920023507568
763.5187085768503 8134.559839155081
764.4828991393406 8190.445367498141
765.4468473869474 8146.85878923862
766.4105533929032 8068.734713735932
767.3740172304078 8026.395651260314
768.3372389726283 8001.849982256137
769.3002186926988 7955.829279011746
770.2629564637282 7926.612444372028
771.2254523587872 8005.331262903464
772.1877064509154 7924.249182878499
773.1497188131179 7859.672919908304
774.1114895183728 7837.666372535145
775.0730186396268 7773.9473327658025
776.0343062497905 7757.573410406035
776.9953524217381 7762.043930834293
777.9561572283274 7758.378198726723
778.9167207423689 7790.232241124386
779.8770430366476 7738.166956902697
780.8371241839159 7756.750860995778
781.7969642568951 7777.570521361093
782.7565633282757 7784.087258782912
783.7159214707099 7667.764214381534
784.6750387568281 7660.327682007026
785.6339152592227 7683.516883677914
786.5925510504512 7652.409147448711
787.5509462030477 7608.620247556608
788.5091007895098 7713.431368546769
789.4670148823006 7700.321137569075
790.4246885538596 7698.849546188212
791.3821218765861 7737.842712295957
792.3393149228505 7627.2490740794765
793.2962677649975 7680.473100295118
794.2529804753303 7728.500527416055
795.20945312613 7735.00539614737
796.1656857896378 7776.056451200086
797.1216785380675 7804.074510022159
798.0774314435985 7845.2490214560075
799.0329445783846 7922.551435411675
799.9882180145414 7872.739931703933
800.9432518241574 7972.42849933847
801.89804607929 8000.327359101213
802.852600851962 7991.186576163791
803.8069162141637 8047.862840711436
804.760992237856 8126.403187925486
805.714828994971 8049.051295831375
806.6684265574077 8164.111432988968
807.6217849970271 8178.17477885236
808.574904385674 8135.892269651585
809.527784795142 8072.174956737406
810.4804262972102 8167.121963645341
811.4328289636178 7936.380306920153
812.3849928660748 7942.084963731764
813.3369180762638 7902.020845557486
814.2886046658241 7812.180689230248
815.2400527063783 7788.455121598949
816.1912622695108 7720.512958741498
817.1422334267718 7680.901720295898
818.0929662496856 7681.9315941774385
819.0434608097457 7564.348168683912
819.9937171784059 7569.4526900353785
820.9437354271013 7452.412147937624
821.8935156272255 7456.7133057783185
822.8430578501484 7373.391102093589
823.7923621672016 7293.333181679491
824.7414286496896 7378.546815388999
825.6902573688876 7342.183770961589
826.6388483960363 7345.251453731869
827.5872018023492 7307.0715128202155
828.5353176590033 7249.718079286526
829.4831960371503 7240.003445340626
830.4308370079016 7318.123861363556
831.3782406423525 7214.336823546642
832.3254070115545 7265.377920742605
833.2723361865319 7175.023640827104
834.2190282382799 7210.8284144947565
835.1654832377644 7233.164862732007
836.1117012559116 7201.988125160211
837.0576823636256 7232.32631545606
838.003426631778 7209.052698168108
838.9489341312074 7091.702798991311
839.8942049327197 7059.627125487685
840.8392391070975 7213.872374902343
841.7840367250865 7139.299155710405
842.7285978573982 7182.515328691098
843.672922574724 7168.060036229419
844.6170109477152 7167.433968039892
845.560863046996 7108.084557318749
846.5044789431595 7057.029015138663
847.4478587067697 7194.31725419701
848.3910024083561 7106.453985372779
849.333910118421 7136.402800317135
850.2765819074339 7107.319805752288
851.2190178458332 7156.192031825148
852.161218004032 7115.08410202456
853.1031824524016 7111.870026598552
854.0449112612987 7157.017343836451
854.9864045010327 7133.564882595463
855.9276622418947 6975.034393065308
856.8686845541379 7110.627073154799
857.8094715079915 7022.247631375489
858.7500231736467 7102.694808087059
859.690339621271 7149.882325582397
860.6304209209939 7144.158607301647
861.5702671429244 6971.259280972679
862.5098783571284 7054.902688572516
863.4492546336569 7174.334452840414
864.3883960425155 7090.392258145943
865.3273026536863 7060.531247946128
866.2659745371238 7082.457078081115
867.2044117627465 7194.119660632125
868.1426144004472 7062.540334501196
869.0805825200823 7172.242843824955
870.0183161914847 7185.165897127945
870.9558154844526 7231.54077056646
871.8930804687552 7230.688486188997
872.8301112141307 7314.854861472403
873.7669077902865 7265.929941296134
874.7034702669062 7320.845531932826
875.6397987136315 7402.112975719191
876.5758932000863 7445.0833471644655
877.5117537958522 7470.241750986861
878.4473805704911 7431.3554433600075
879.3827735935283 7447.20466090049
880.3179329344603 7458.7644559984155
881.2528586627541 7411.324296185584
882.1875508478479 7382.978011813323
883.1220095591489 7357.965045256116
884.0562348660296 7422.377885781428
884.9902268378391 7482.151683012331
885.9239855438955 7465.8257080433
886.8575110534839 7436.909520206764
887.7908034358588 7260.49371023547
888.7238627602474 7386.752758159309
889.6566890958475 7314.998994676976
890.5892825118208 7232.506605447588
891.5216430773125 7243.349902249252
892.4537708614189 7184.990063503605
893.3856659332196 7092.4573631288495
894.3173283617652 7028.750743453036
895.2487582160684 7067.990476485264
896.179955565116 7054.196700571103
897.110920477864 6948.720406020288
898.0416530232451 6978.639820799033
898.9721532701478 6917.8253802832305
899.9024212874428 6940.821195670042
900.8324571439662 6910.309539211268
901.7622609085302 6853.787012090166
902.6918326499072 6762.627033501655
903.6211724368477 6852.9556376000155
904.5502803380696 6831.266582798326
905.4791564222614 6819.14352872286
906.4078007580792 6767.907927775828
907.3362134141571 6815.809388875032
908.2643944590909 6786.716541484144
909.1923439614493 6821.608185904835
910.1200619897754 6704.83342083674
911.0475486125779 6739.930630395999
911.9748038983344 6712.847331336622
912.9018279155007 6711.470633338313
913.8286207324982 6727.755977494421
914.7551824177117 6697.173686614714
915.6815130395116 6765.862605278775
916.6076126662283 6667.174111173505
917.533481366163 6798.019991640482
918.4591192075914 6665.092242248056
919.3845262587565 6725.242942031948
920.3097025878706 6688.657487908842
921.2346482631237 6700.885570879832
922.1593633526682 6680.096049759076
923.0838479246304 6675.781510304654
924.0081020471061 6681.760674717161
924.9321257881656 6667.303145623891
925.8559192158464 6599.261274803524
926.7794823981512 6632.522737311733
927.7028154030686 6661.7555788724585
928.6259182985414 6603.822534074175
929.5487911524906 6676.790028107362
930.4714340328119 6594.457089188747
931.3938470073608 6569.476826494325
932.3160301439748 6717.9343522092095
933.2379835104548 6656.51599076401
934.1597071745709 6726.321785113854
935.0812012040769 6654.637749268225
936.002465666681 6604.6693285482515
936.9235006300696 6657.477382476738
937.8443061619055 6620.915429899787
938.7648823298077 6572.775912453752
939.6852292013809 6632.018532741537
940.6053468441951 6708.214054986854
941.5252353257874 6631.70153071336
942.4448947136698 6621.98713658247
943.364325075323 6599.707007163231
944.2835264782043 6625.574326965478
945.2024989897309 6676.693441038512
946.1212426773054 6749.036618482585
947.0397576082851 6567.526560614346
947.9580438500125 6670.223436050874
948.8761014697939 6647.488981845743
949.7939305349064 6733.3011196079315
950.7115311125999 6709.4069774721775
951.6289032700952 6755.598307875826
952.5460470745875 6686.913101509099
953.4629625932339 6726.088850835333
954.3796498931715 6755.165834950477
955.2961090415029 6687.302613708887
956.2123401053068 6750.7870264264875
957.1283431516276 6654.642536120072
958.0441182474842 6688.245386908449
958.9596654598663 6697.989713959358
959.8749848557309 6654.883648408661
960.7900765020167 6670.652933094633
961.7049404656209 6657.295156687107
962.6195768134185 6625.246099713523
963.5339856122537 6541.901654399368
964.4481669289453 6586.432168240195
965.3621208302793 6525.1561109355325
966.2758473830145 6635.950510504146
967.1893466538822 6565.372395251141
968.1026187095813 6572.064617539072
969.0156636167867 6590.0758805966125
969.9284814421426 6569.652279188209
970.8410722522622 6503.444967382142
971.753436113735 6520.373400765426
972.6655730931161 6536.648782786933
973.5774832569368 6487.336808529827
974.4891666716958 6510.670023938728
975.4006234038698 6612.401533435515
976.3118535198955 6531.75799138127
977.2228570861935 6506.714390189429
978.1336341691494 6489.02310946959
979.0441848351202 6512.007442238305
979.9545091504333 6505.919418789662
980.864607181391 6647.318585604973
981.7744789942699 6596.077758157744
982.6841246553086 6614.068281828606
983.5935442307236 6598.335744568806
984.5027377867027 6628.733764690313
985.4117053894024 6710.653819444371
986.3204471049557 6592.071124474642
987.2289629994648 6645.59446672745
988.1372531390007 6700.727574220633
989.0453175896091 6607.25188398639
989.9531564173067 6637.988471280061
990.860769688079 6559.543429778612
991.7681574678918 6716.153554413056
992.6753198226706 6791.261846071667
993.582256818323 6725.650942138991
994.4889685207218 6725.041013518596
995.3954549957143 6716.639860112201
996.301716309119 6699.279302049241
997.2077525267232 6770.964854224893
998.1135637142943 6760.291301093641
999.0191499375615 6804.910026133713
999.924511262232 6660.480541090267
1000.8296477539861 6813.5563885557885
1001.7345594784656 6686.2048261576365
1002.6392465012996 6765.653448547247
1003.5437088880753 6695.064898861213
1004.4479467043584 6713.666723955578
1005.3519600156869 6605.180491306366
1006.2557488875718 6615.530714295144
1007.1593133854858 6583.590668097412
1008.0626535748888 6627.24522306115
1008.9657695212009 6566.070005719301
1009.8686612898182 6634.486670923669
1010.7713289461135 6608.330102586032
1011.6737725554212 6573.192227204783
1012.5759921830577 6580.933846652073
1013.4779878943027 6622.982810623471
1014.379759754418 6453.908912827708
1015.2813078286254 6474.113404183334
1016.18263218213 6495.4964535974195
1017.0837328801026 6458.831735301272
1017.9846099876886 6481.827397034447
1018.8852635700023 6460.189236960121
1019.7856936921362 6359.161229152497
1020.6859004191447 6406.492296785586
1021.5858838160675 6441.768223409198
1022.4856439479063 6371.1757096154315
1023.3851808796389 6438.058433993223
1024.2844946762143 6322.208741626056
1025.183585402554 6262.537607341786
1026.082453123554 6301.936042854243
1026.9810979040776 6311.205677990613
1027.8795198089647 6292.123787385526
1028.777718903024 6303.449282278756
1029.6756952510368 6279.339693048637
1030.5734489177648 6208.82426526297
1031.4709799679313 6298.054005836084
1032.3682884662358 6263.213346247137
1033.2653744773506 6209.153383384257
1034.1622380659192 6230.784356356603
1035.058879296559 6228.523486650118
1035.9552982338591 6252.744248200179
1036.8514949423825 6299.433864272986
1037.7474694866614 6194.015702218603
1038.6432219312028 6322.101870503857
1039.5387523404825 6280.610328677862
1040.4340607789582 6328.81455880833
1041.3291473110476 6331.930428668073
1042.2240120011465 6321.617891753372
1043.1186549136273 6456.620542004726
1044.0130761128294 6381.532976990973
1044.9072756630649 6483.726819396428
1045.8012536286205 6509.751203143058
1046.6950100737577 6400.031122844463
1047.588545062701 6548.537775014056
1048.481858659663 6558.694434099525
1049.3749509288118 6570.442428377141
1050.2678219343034 6494.54717807283
1051.1604717402515 6526.454123250233
1052.0529004107575 6593.193468410437
1052.9451080098825 6707.114391620252
1053.8370946016694 6556.866665834957
1054.7288602501267 6604.183216759506
1055.6204050192446 6567.533149914288
1056.511728972977 6695.372169409658
1057.402832175254 6593.492568309349
1058.2937146899785 6532.396425965484
1059.1843765810263 6544.9485961800465
1060.0748179122456 6633.657763133451
1060.9650387474576 6575.505216542433
1061.855039150456 6563.928283485929
1062.7448191850071 6484.594390207933
1063.6343789148505 6501.404187289388
1064.5237184037014 6446.868186390298
1065.412837715241 6451.648962948494
1066.3017369131267 6413.066666789781
1067.190416060992 6406.210943607142
1068.0788752224398 6325.340194076312
1068.9671144610438 6342.989153168097
1069.8551338403558 6288.046663355422
1070.7429334239023 6442.536436051365
1071.6305132751695 6364.218950298275
1072.517873457633 6307.924147502991
1073.4050140347335 6337.705385646657
1074.2919350698776 6229.631181384404
1075.1786366264623 6192.427701849736
1076.0651187678395 6300.744575296386
1076.95138155735 6253.025139618259
1077.8374250582929 6164.165925019706
1078.7232493339507 6139.9781954097
1079.608854447577 6177.4931116614525
1080.4942404623907 6224.231108319481
1081.3794074415982 6201.486286132159
1082.2643554483657 6193.369678486289
1083.149084545841 6156.5393208407495
1084.033594797138 6144.795994220749
1084.9178862653516 6256.307297012459
1085.8019590135427 6080.260123765489
1086.6858131047484 6199.261088557506
1087.5694486019802 6159.576831476314
1088.4528655682225 6198.57278967447
1089.3360640664287 6177.818693892727
1090.2190441595321 6098.393646759342
1091.1018059104317 6237.33997000451
1091.98434938201 6216.310854785757
1092.866674637111 6182.274928574554
1093.748781738559 6268.797148299307
1094.6306707491512 6104.527033162643
1095.5123417316554 6185.253832665175
1096.3937947488157 6196.579391212745
1097.2750298633455 6139.997074859221
1098.156047137938 6217.061539257678
1099.0368466352556 6239.28911091877
1099.9174284179317 6122.0191125788
1100.7977925485757 6079.758211918509
1101.6779390897755 5989.458577502659
1102.5578681040806 6092.285361869634
1103.4375796540226 6030.437679709181
1104.3170738021054 5990.679688080314
1105.1963506108077 5994.638812794349
1106.0754101425773 6011.712204088146
1106.9542524598382 5965.165155948086
1107.8328776249855 5910.862864183222
1108.7112857003904 5926.576693799898
1109.5894767483987 5882.540219256518
1110.4674508313292 5986.691216740503
1111.3452080114657 5946.366798984966
1112.2227483510815 5851.332466021149
1113.1000719124077 5932.436622106921
1113.9771787576592 5996.961404544159
1114.854068949022 5985.437979934363
1115.7307425486542 6022.566131208182
1116.6071996186893 5969.515016735763
1117.483440221229 6013.316892625799
1118.3594644183577 6149.04256751268
1119.235272272128 6183.431778334722
1120.1108638445658 6119.766111418974
1120.9862391976712 6289.228344065008
1121.8613983934229 6294.575086499337
1122.7363414937627 6300.718997331898
1123.6110685606182 6355.911699710299
1124.485579655884 6420.070566527497
1125.359874841426 6462.79501995231
1126.2339541790916 6513.9217277116495
1127.1078177306936 6646.686923899055
1127.9814655580267 6573.884086050326
1128.854897722851 6632.495171181237
1129.7281142869106 6638.942380647946
1130.6011153119125 6646.789117101149
1131.473900859548 6726.7556404003535
1132.3464709914697 6575.4032223484555
1133.2188257693178 6578.943956371458
1134.0909652546961 6602.364514373779
1134.96288950919 6540.884785082942
1135.8345985943506 6540.159709462046
1136.7060925717087 6492.007024268642
1137.57737150277 6431.753059596593
1138.4484354490069 6313.529667689165
1139.3192844718778 6299.293372922899
1140.1899186327992 6196.011303078044
1141.060337993178 6192.997409614844
1141.930542614382 6081.219823509055
1142.8005325577597 6193.306352866419
1143.670307884635 5914.050815725595
1144.5398686563003 5998.540496662312
1145.409214934025 5936.197114724985
1146.2783467790541 5859.552681458872
1147.1472642526023 5720.911569400234
1148.0159674158622 5775.791713430893
1148.8844563300026 5692.777960320067
1149.7527310561618 5645.196851305621
1150.6207916554504 5634.824840855334
1151.4886381889592 5617.281867317166
1152.3562707177498 5548.904518236035
1153.2236893028585 5541.1527448566185
1154.090894005296 5533.089748452634
1154.9578848860474 5517.582286986948
1155.8246620060709 5458.576748756524
1156.6912254262988 5479.350518578717
1157.5575752076438 5449.966003892746
1158.42371141098 5492.97336751703
1159.2896340971656 5435.281203683116
1160.1553433270346 5429.309156081618
1161.0208391613887 5418.482943685293
1161.8861216610057 5408.406602632479
1162.75119088664 5459.280144466022
1163.6160468990201 5314.016286694065
1164.4806897588442 5360.38501903499
1165.3451195267917 5405.768538099857
1166.2093362635114 5352.8030115170695
1167.0733400296285 5335.35009873625
1167.9371308857444 5276.976124977575
1168.8007088924278 5416.428009782158
1169.6640741102328 5420.799380147424
1170.5272265996773 5382.277867473675
1171.390166421259 5237.040906737891
1172.252893635452 5391.999799533929
1173.1154083026995 5317.250288945271
1173.977710483421 5344.929194874234
1174.8398002380145 5275.714759451909
1175.7016776268483 5351.226945399013
1176.563342710264 5355.730287663233
1177.4247955485826 5359.554262549103
1178.2860362020947 5362.970563555915
1179.147064731069 5295.453992983243
1180.0078811957483 5349.771052238682
1180.8684856563486 5317.756507382842
1181.7288781730604 5325.117999436634
1182.589058806052 5371.172586199302
1183.4490276154593 5439.96661644714
1184.3087846614017 5442.090815941314
1185.1683300039676 5435.519714610046
1186.027663703222 5545.78569854564
1186.8867858192025 5558.943860614744
1187.7456964119228 5598.688681195616
1188.6043955413716 5553.1166346848495
1189.4628832675116 5702.452272819448
1190.3211596502842 5570.047901970764
1191.179224749596 5652.091326906452
1192.0370786253388 5624.498413131146
1192.8947213373758 5677.76840831405
1193.7521529455407 5795.454646938438
1194.6093735096438 5712.594347594896
1195.466383089477 5704.379496206873
1196.3231817447977 5756.411673432083
1197.1797695353398 5950.000996555289
1198.0361465208189 5740.640792523529
1198.8923127609214 5681.2820272099725
1199.7482683153048 5681.012612080423
1200.6040132436028 5760.235848374441
1201.459547605431 5728.532182183828
1202.3148714603722 5767.417567706289
1203.1699848679855 5667.693292036774
1204.0248878878065 5659.518833348918
1204.8795805793507 5687.6625815298885
1205.7340630020935 5642.1736046793885
1206.5883352155033 5771.084568332766
1207.4423972790064 5652.795213485797
1208.2962492520237 5567.737349132152
1209.1498911939307 5639.794468752238
1210.0033231640937 5601.839063317277
1210.8565452218427 5516.377590817913
1211.7095574264913 5509.542237900992
1212.5623598373222 5440.611381682281
1213.4149525135963 5410.410493170785
1214.2673355145507 5395.720057882854
1215.1195088993936 5333.787471237233
1215.9714727273113 5389.612849196524
1216.8232270574663 5434.193554859444
1217.6747719489904 5276.492216106728
1218.5261074609934 5324.458850108632
1219.3772336525653 5217.997540817278
1220.2281505827668 5313.118572646774
1221.0788583106296 5285.633373405266
1221.9293568951707 5309.874197812665
1222.7796463953746 5153.830423886389
1223.629726870202 5143.35368598053
1224.4795983785934 5135.409085808255
1225.3292609794553 5215.97994297397
1226.1787147316809 5177.913116723279
1227.0279596941327 5108.037845287981
1227.8769959256424 5142.811563953515
1228.7258234850306 5226.3301717663135
1229.5744424310833 5178.747348281685
1230.422852822563 5187.997126788109
1231.2710547182105 5164.908032382778
1232.119048176739 5102.76865841115
1232.9668332568417 5113.227702962521
1233.8144100171812 5187.978258322211
1234.6617785163999 5194.6182707104945
1235.508938813111 5076.0970841299995
1236.3558909659114 5132.5395308794305
1237.2026350333617 5143.534286351129
1238.049171074008 5168.220722704785
1238.8954991463652 5110.994820227437
1239.741619308932 5004.491728495642
1240.587531620169 5214.649142227647
1241.4332361385277 5100.11870278011
1242.2787329224248 5019.16709924761
1243.1240220302534 5086.531805309612
1243.9691035203869 5042.019710572646
1244.813977451171 5004.671518219937
1245.6586438809263 5072.292902979329
1246.5031028679496 5002.475409402118
1247.3473544705157 5066.963261235226
1248.1913987468706 5102.375552015017
1249.0352357552383 5053.296896220875
1249.8788655538228 5073.168566304145
1250.7222882007918 5028.905294363373
1251.565503754302 5022.83602476811
1252.4085122724755 5093.003269943493
1253.2513138134182 5095.337755279712
1254.0939084352049 5041.364674803359
1254.9362961958905 5085.280026650142
1255.7784771535007 5097.409236781189
1256.6204513660432 5099.973586076663
1257.4622188915 5146.296670575261
1258.3037797878242 5166.361904671148
1259.1451341129468 5088.48459284566
1259.9862819247755 5074.012937077155
1260.8272232811978 4965.16671677629
1261.6679582400666 5107.485516690285
1262.5084868592203 5074.841283725093
1263.34880919647 5009.128865920385
1264.1889253095997 5112.635631007022
1265.0288352563712 5139.991599642614
1265.8685390945266 5102.222699761989
1266.7080368817751 5050.413518408505
1267.5473286758115 4986.892149146381
1268.386414534294 5117.746800302397
1269.2252945148703 5069.302565590173
1270.0639686751547 5088.249729657166
1270.9024370727402 5040.848395393454
1271.7406997651997 5022.750071641154
1272.5787568100714 5044.100403915941
1273.4166082648808 4981.435725911933
1274.2542541871244 5026.803698966522
1275.091694634275 4997.884495808461
1275.9289296637817 5098.84780039713
1276.7659593330663 4976.573480965541
1277.6027836995308 5041.28691364734
1278.4394028205552 4967.460636115624
1279.2758167534867 4970.312579313589
1280.112025555658 5034.138609823542
1280.9480292843746 4965.039876573787
1281.7838279969128 4920.539575144953
1282.6194217505326 4877.893024849315
1283.4548106024686 4838.087954834982
1284.289994609926 4932.183863760708
1285.1249738300921 4920.71669709681
1285.959748320127 4912.720432980593
1286.7943181371702 4926.286486802428
1287.6286833383328 4998.135556181509
1288.4628439807038 4907.663075749193
1289.2968001213521 4914.990080735988
1290.1305518173194 4905.608317253274
1290.9640991256183 4926.569442646012
1291.7974421032523 5007.440309947316
1292.630580807183 4998.385372585353
1293.463515294361 4925.747108967082
1294.29624562171 4895.804016080534
1295.12877184613 4882.5657581047135
1295.961094024493 4943.337268192392
1296.79321221365 4901.436952562255
1297.6251264704333 4997.439659239553
1298.4568368516466 5074.303860955247
1299.2883434140658 5008.638869376496
1300.1196462144526 4966.671287479474
1300.9507453095375 5062.164155420946
1301.7816407560313 4992.4208968442335
1302.6123326106172 5061.825059380847
1303.4428209299622 4988.5061951429525
1304.2731057707024 5037.617934666876
1305.1031871894502 4932.176992290106
1305.933065242798 5019.1834486514035
1306.7627399873181 5049.806776518102
1307.5922114795467 5128.410241165615
1308.4214797760123 5098.421973204453
1309.2505449332057 5109.3272435758645
1310.0794070076026 5124.134228379682
1310.9080660556538 5143.338841626452
1311.736522133786 5097.134745065005
1312.5647752983987 5111.542156693351
1313.3928256058734 5143.472312808269
1314.2206731125661 5125.053352326389
1315.048317874809 5132.2637302340145
1315.8757599489109 5219.146154652744
1316.7029993911547 5314.238053839036
1317.5300362578055 5275.232604025014
1318.356870605101 5119.534591845676
1319.183502489257 5204.8398315191225
1320.0099319664623 5265.080039730032
1320.836159092889 5327.087350966713
1321.66218392468 5230.72225142819
1322.4880065179532 5307.332555595809
1323.3136269288134 5191.802781120638
1324.1390452133292 5264.206365762082
1324.9642614275563 5198.459273596413
1325.7892756275214 5336.238963796971
1326.6140878692295 5237.237687941406
1327.4386982086617 5271.035315601399
1328.2631067017755 5342.9803163333945
1329.0873134045069 5290.12788255157
1329.911318372764 5193.44247787705
1330.735121662441 5272.365241459995
1331.558723329399 5263.087318850863
1332.3821234294774 5166.495242386582
1333.2053220185007 5137.847415782781
1334.0283191522612 5140.398875881113
1334.851114886529 5169.659174658593
1335.6737092770582 5185.156232830459
1336.4961023795695 5086.691201504618
1337.3182942497697 5238.174189460324
1338.1402849433325 5156.375149128509
1338.962074515921 5081.307445780385
1339.7836630231632 4989.753761894139
1340.6050505206676 5132.822504793571
1341.426237064028 5056.790857765899
1342.2472227088037 5015.2688804686995
1343.0680075105338 5008.838280158956
1343.888591524741 4977.034892123186
1344.7089748069138 5009.888442015808
1345.5291574125276 4978.530761988225
1346.3491393970307 4950.223280006991
1347.168920815846 5002.811770525771
1347.9885017243778 4868.989485880954
1348.8078821780036 4931.8937490565795
1349.6270622320844 4907.435749948788
1350.4460419419447 4899.537374384034
1351.2648213629054 4946.272066591746
1352.0834005502438 4829.910080373871
1352.90177955923 4887.129529592085
1353.7199584451064 4928.327052816251
1354.5379372630887 4890.816291044559
1355.355716068374 4822.547839365723
1356.1732949161305 4829.159371941072
1356.9906738615155 4862.652625585555
1357.8078529596478 4936.735053091098
1358.6248322656375 4868.408217256094
1359.441611834567 4767.001276746863
1360.2581917214866 4992.476276057083
1361.0745719814367 4723.798860836358
1361.890752669433 4821.713389446922
1362.7067338404577 4816.40218469878
1363.5225155494845 4872.710373844953
1364.3380978514506 4919.993073981257
1365.1534808012839 4832.389206111055
1365.9686644538815 4782.596283400234
1366.783648864117 4835.340074618597
1367.5984340868417 4770.364241352813
1368.413020176893 4865.863670774344
1369.2274071890715 4724.037986278024
1370.0415951781652 4800.149191215823
1370.8555841989346 4625.779393712034
1371.6693743061223 4718.012720323763
1372.48296555444 4702.686512379514
1373.2963579985844 4804.395534786579
1374.1095516932255 4633.904900359013
1374.9225466930166 4762.292551458008
1375.7353430525782 4684.433602047399
1376.5479408265164 4706.873684495162
1377.36034006941 4688.263924934138
1378.1725408358216 4662.189072053524
1378.9845431802805 4676.19957219524
1379.796347157304 4691.834383581279
1380.6079528213813 4732.642031029619
1381.4193602269788 4660.471312014026
1382.230569428546 4608.030936726365
1383.0415804805016 4790.40832433692
1383.852393437246 4695.570279510801
1384.6630083531563 4680.08682490059
1385.4734252825892 4671.530658151938
1386.2836442798798 4776.331750437382
1387.0936653993322 4721.974953208264
1387.9034886952395 4677.156360436042
1388.713114221864 4644.026125037895
1389.5225420334482 4677.572471180206
1390.331772184214 4588.7318404113275
1391.1408047283585 4557.967933259084
1391.9496397200564 4618.792052812356
1392.758277213461 4667.193604639335
1393.5667172627054 4607.587306296429
1394.3749599218918 4592.669397318839
1395.1830052451114 4514.443322425903
1395.9908532864265 4572.832417778578
1396.7985040998774 4619.321520470521
1397.6059577394808 4583.632911967768
1398.4132142592352 4631.811266208284
1399.2202737131156 4543.19399294751
1400.027136155073 4481.779609268841
1400.8338016390353 4541.415086988405
1401.6402702189134 4529.970431892909
1402.446541948586 4465.831923916482
1403.2526168819204 4436.826397528039
1404.058495072757 4490.794948977915
1404.8641765749107 4507.099609004066
1405.6696614421799 4493.656284886855
1406.4749497283356 4547.2189251810505
1407.280041487129 4451.882149517441
1408.084936772295 4296.15370713051
1408.8896356375335 4396.884510226453
1409.6941381365323 4473.658042620762
1410.498444322955 4384.672884903269
1411.3025542504402 4398.623730493928
1412.106467972606 4417.6408994392405
1412.9101855430508 4323.140576603571
1413.7137070153458 4279.098234090057
1414.5170324430437 4332.9139161785515
1415.320161879672 4391.7308627693255
1416.1230953787435 4392.09758308105
1416.925832993742 4277.526289530564
1417.7283747781275 4193.4893816886615
1418.5307207853439 4256.21570126691
1419.3328710688093 4285.254671685727
1420.134825681922 4219.1754022440355
1420.9365846780584 4278.394613032626
1421.7381481105713 4292.466149531274
1422.539516032788 4273.515138469569
1423.3406884980232 4216.935424130625
1424.1416655595604 4240.511383391264
1424.942447270665 4268.092032476022
1425.7430336845828 4244.952287641669
1426.5434248545298 4145.184623080024
1427.3436208337116 4193.78906888182
1428.143621675301 4333.625586291367
1428.9434274324558 4318.557756620695
1429.7430381583108 4155.987833165226
1430.5424539059713 4275.44169002191
1431.3416747285337 4409.81303226244
1432.1407006790632 4165.376291356734
1432.9395318106053 4311.214221669978
1433.7381681761835 4297.79039861231
1434.5366098288014 4332.191935952867
1435.3348568214424 4267.667420105097
1436.1329092070573 4296.73814695383
1436.9307670385879 4326.340440804518
1437.7284303689503 4377.495487040617
1438.5258992510335 4410.082691562958
1439.3231737377118 4353.189896795496
1440.1202538818306 4352.028451956393
1440.9171397362225 4336.2588099851855
1441.7138313536925 4318.3189974921015
1442.5103287870243 4297.008240935814
1443.3066320889775 4232.276769130722
1444.1027413122956 4389.608582725934
1444.8986565096966 4221.663295564855
1445.694377733882 4359.536399345651
1446.4899050375207 4222.902239724959
1447.2852384732687 4092.0815704304746
1448.0803780937622 4172.71396675199
1448.8753239516063 4257.315590024592
1449.6700760993954 4148.604706046324
1450.464634589689 4170.270899783352
1451.2589994750397 4269.650498143556
1452.0531708079689 4086.017614599954
1452.8471486409799 4072.2651430898172
1453.6409330265524 4101.746931493607
1454.4345240171442 4079.803640585883
1455.2279216651987 4060.125300547107
1456.0211260231263 4094.251312169832
1456.8141371433194 4143.529335698496
1457.6069550781594 4070.6640969133514
1458.3995798799897 4060.9544452597706
1459.1920116011424 4108.715552345202
1459.98425029393 3958.503767983748
1460.7762960106338 4031.780303146827
1461.5681488035225 4012.6194097519547
1462.3598087248392 4018.9437482643198
1463.1512758268036 3931.4289999203274
1463.942550161617 3963.799941325594
1464.7336317814625 3988.0258697145823
1465.524520738496 3921.242822679048
1466.3152170848552 3969.423417668039
1467.1057208726506 3996.0285493599513
1467.8960321539817 3882.8429108204014
1468.6861509809169 3842.5165486398814
1469.4760774055085 3872.213984315309
1470.265811479785 3873.616592895076
1471.055353255755 3681.4489221765843
1471.844702785409 3848.4028505096894
1472.6338601207044 3821.3535992490397
1473.4228253135934 3972.2019292806945
1474.2115984159936 3750.596224901693
1475.0001794798063 3688.794746247751
1475.7885685569145 3721.225238054233
1476.576765699172 3722.7033583453876
1477.3647709584238 3725.4335628169065
1478.1525843864802 3733.4173933273246
1478.9402060351367 3724.16664950384
1479.7276359561693 3730.617753229881
1480.514874201328 3728.01477542836
1481.3019208223468 3673.8452905509707
1482.0887758709323 3667.974348785755
1482.8754393987747 3597.6192512151806
1483.6619114575406 3579.282616180458
1484.4481920988783 3750.951079594181
1485.2342813744108 3749.4451771862464
1486.0201793357446 3562.6336891941405
1486.8058860344572 3714.1703506133445
1487.591401522117 3681.534511392176
1488.3767258502594 3653.087640837385
1489.1618590704056 3651.3698600624134
1489.9468012340494 3612.8285592453094
1490.7315523926754 3684.8213912667734
1491.5161125977356 3750.31467742705
1492.3004819006637 3650.2726880850278
1493.084660352877 3581.009244361071
1493.8686480057622 3523.5273799753486
1494.6524449106964 3831.019329880045
1495.4360511190262 3753.2471027909705
1496.219466682087 3588.1906361577503
1497.0026916511779 3706.784589369408
1497.7857260775945 3679.021611330137
1498.5685700125996 3639.8501677731642
1499.3512235074395 3686.248703026923
1500.133686613337 3717.1551602911873
1500.9159593814966 3630.1026909109096
1501.698041863101 3671.384682629421
1502.4799341093094 3693.689104014371
1503.2616361712662 3543.2533434706625
1504.043148100087 3698.741594574925
1504.8244699468742 3656.195344363682
1505.6056017626997 3681.2411720832833
1506.3865435986281 3549.2389385909905
1507.1672955056893 3715.7643501081316
1507.9478575348967 3566.8625454322923
1508.7282297372512 3782.8066418815897
1509.5084121637192 3659.565037299748
1510.2884048652577 3562.5213406518974
1511.0682078927948 3631.0826293550926
1511.8478212972423 3611.9913636768442
1512.6272451294917 3521.418267936772
1513.4064794404076 3612.6032032337935
1514.1855242808433 3554.677752622088
1514.9643797016215 3699.57713557111
1515.743045753552 3530.092136401726
1516.5215224874191 3588.110602535263
1517.2998099539836 3528.2501473933
1518.077908203999 3581.260884066561
1518.8558172881785 3712.6110722711373
1519.633537257234 3683.3952739499846
1520.4110681618404 3602.475168911653
1521.1884100526604 3682.821611245632
1521.9655629803365 3715.0767487733456
1522.7425269954856 3703.952730923823
1523.5193021487103 3690.316798187775
1524.2958884905856 3568.7636745776217
1525.0722860716687 3593.487038269067
1525.848494942502 3742.126883600705
1526.624515153595 3539.0903044520483
1527.4003467554485 3726.5085193305613
1528.175989798534 3702.6533374305995
1528.9514443333064 3600.592347973673
1529.726710410203 3685.517426519227
1530.5017880796331 3653.4662369172024
1531.276677391992 3617.601562442297
1532.0513783976457 3747.5642663986937
1532.825891146953 3668.9576023319737
1533.6002156902414 3679.736161570425
1534.3743520778207 3576.1669164108876
1535.1483003599806 3571.4263854727774
1535.9220605869923 3506.759436603409
1536.6956328091019 3678.039995819128
1537.4690170765407 3609.391391604636
1538.242213439511 3671.679119281922
1539.015221948208 3654.1857616018037
1539.78804265279 3600.11468215898
1540.560675603405 3531.0316911578857
1541.3331208501804 3656.412340591669
1542.1053784432224 3747.547473623085
1542.8774484326168 3743.9238940331866
1543.649330868422 3728.9257867411775
1544.4210258006842 3703.87986627485
1545.1925332794308 3612.7314072121976
1545.9638533546604 3656.5811464430562
1546.7349860763552 3654.504983083687
1547.5059314944829 3685.2389226869504
1548.27668965898 3676.7828072698358
1549.0472606197673 3784.3872247667177
1549.817644426752 3690.174533325267
1550.5878411298072 3612.694427350632
1551.3578507787988 3629.9086799134034
1552.1276734235635 3720.108538448433
1552.8973091139233 3745.5908594373454
1553.6667578996767 3788.77967434989
1554.436019830604 3882.5145896481345
1555.20509495646 3760.3404116660226
1555.9739833269869 3715.5318378618385
1556.7426849919011 3681.170832488862
1557.511200000903 3885.7774341565505
1558.2795284036674 3809.7804201123413
1559.0476702498509 3758.2536360765794
1559.8156255890954 3738.9981270358694
1560.5833944710157 3757.2915619925793
1561.3509769452048 3803.8061296821434
1562.1183730612447 3854.5367406980404
1562.8855828686865 3769.548278030764
1563.6526064170703 3793.591562548723
1564.4194437559127 3836.4037986616604
1565.1860949347047 3746.6881238998153
1565.9525600029283 3854.8317316803696
1566.7188390100328 3823.055012980271
1567.4849320054564 3766.066386807369
1568.250839038612 3805.488511585957
1569.0165601588997 3797.921950239624
1569.7820954156887 3788.173687187524
1570.5474448583373 3808.38906169061
1571.31260853618 3758.4334666936775
1572.0775864985299 3774.623212800684
1572.8423787946813 3794.1092397875555
1573.6069854739108 3887.893985620815
1574.371406585471 3864.137233371227
1575.1356421785986 3886.538117435642
1575.899692302506 3845.4491732560687
1576.6635570063845 3870.0155519918453
1577.4272363394157 3824.3909215097106
1578.190730350747 3885.2330914862346
1578.9540390895163 3729.3987031887686
1579.7171626048384 3651.0512292649737
1580.480100945806 3764.9120531823014
1581.2428541614918 3834.2898165889537
1582.0054223009538 3623.4133403120554
1582.767805413223 3919.6780090574343
1583.5300035473156 3697.1470139727485
1584.292016752228 3717.883194428666
1585.0538450769309 3614.1380175486493
1585.8154885703807 3782.531089681652
1586.5769472815136 3715.9669995214344
1587.3382212592405 3758.846763857542
1588.099310552463 3752.0179182227193
1588.8602152100484 3590.3702963718983
1589.6209352808564 3761.4757232090947
1590.3814708137234 3642.3935674204417
1591.14182185746 3571.8039765363565
1591.9019884608679 3832.7182838451313
1592.6619706727215 3557.3391506163034
1593.4217685417734 3833.0073945040176
1594.1813821167616 3807.049596577411
1594.9408114464022 3574.5550470352055
1595.7000565793933 3725.9058249425025
1596.459117564409 3687.2428847801516
1597.2179944501113 3610.900890517224
1597.9766872851324 3732.300395399
1598.735196118092 3630.3523962141153
1599.4935209975883 3787.392724333064
1600.2516619721973 3754.67482472107
1601.0096190904787 3649.7664855027156
1601.7673924009723 3689.494858070917
1602.524981952196 3627.6024274370175
1603.2823877926476 3591.4229666503807
1604.0396099708087 3666.8164172978823
1604.7966485351371 3594.2467955153033
1605.5535035340745 3592.7150325454886
1606.3101750160404 3738.438745967573
1607.0666630294363 3692.7068678100222
1607.822967622642 3545.98549516396
1608.5790888440224 3551.9952916020447
1609.3350267419137 3680.861140753802
1610.0907813646445 3580.233793534199
1610.8463527605145 3628.5076361288448
1611.601740977805 3659.2415746090132
1612.356946064785 3594.8036245003873
1613.1119680696902 3465.3432733891605
1613.8668070407512 3513.376298411907
1614.6214630261748 3515.9251435020124
1615.375936074137 3501.7287043978513
1616.1302262328118 3669.8989473591637
1616.8843335503425 3514.709380899988
1617.638258074854 3543.1754665547787
1618.391999854457 3394.3680162208148
1619.1455589372363 3680.5855353670204
1619.8989353712623 3650.1532854180887
1620.65212920458 3388.259192386303
1621.4051404852235 3574.9428776549626
1622.1579692611976 3557.874414801626
1622.9106155804966 3560.1187205462934
1623.663079491087 3510.8593756134687
1624.4153610409248 3469.1375560866254
1625.1674602779385 3482.2460465113936
1625.9193772500403 3348.54502151452
1626.6711120051277 3446.330526850631
1627.4226645910676 3440.256595376228
1628.174035055721 3273.1734653629283
1628.9252234469168 3430.286492299679
1629.676229812474 3341.1730134328836
1630.4270542001905 3589.2260728328
1631.1776966578382 3448.6117338382523
1631.9281572331747 3439.1723023705135
1632.678435973945 3404.7947066611787
1633.4285329278573 3336.507972961766
1634.1784481426203 3414.596401631291
1634.9281816659113 3460.0929550848355
1635.677733545388 3431.984012528164
1636.4271038286934 3395.6412183742286
1637.176292563452 3433.0700564097847
1637.9252997972635 3407.157147374773
1638.674125577716 3496.3350355002053
1639.4227699523672 3375.025055658699
1640.171232968767 3300.9494324283196
1640.9195146744423 3506.038532794998
1641.6676151168977 3510.256069446686
1642.4155343436178 3472.35379822485
1643.1632724020765 3425.8179921377464
1643.9108293397167 3389.8484750157704
1644.658205203974 3323.8169849260785
1645.4054000422566 3495.1912167077076
1646.1524139019566 3427.807527463329
1646.8992468304423 3333.950877389231
1647.6458988750728 3397.33946359838
1648.3923700831765 3527.8282595704122
1649.1386605020743 3507.338883131597
1649.8847701790564 3518.211274702267
1650.6306991614038 3481.009930144596
1651.3764474963682 3433.6952529645832
1652.1220152311944 3385.20033703262
1652.867402413096 3561.466074139702
1653.6126090892776 3374.579347930952
1654.3576353069184 3558.3445487364625
1655.1024811131829 3528.412224529183
1655.8471465552066 3526.3851919467393
1656.5916316801213 3565.6330165479726
1657.3359365350298 3477.554101683015
1658.0800611670165 3404.1905098049174
1658.824005623148 3451.1442839926917
1659.5677699504722 3443.0875609441346
1660.3113541960192 3472.9739960040524
1661.054758406799 3491.020158418568
1661.7979826297997 3300.264119492234
1662.5410269119966 3348.192887841569
1663.283891300338 3484.8681736491794
1664.0265758417645 3330.292436400859
1664.7690805831826 3384.9495480901605
1665.5114055714948 3435.2798678383742
1666.2535508535748 3514.494794163539
1666.9955164762814 3206.042674160689
1667.7373024864555 3400.961193758584
1668.478908930916 3347.534233439778
1669.220335856462 3205.0145326398183
1669.9615833098778 3305.1797377656067
1670.7026513379296 3263.17823967015
1671.44353998736 3225.4171908811313
1672.1842493048916 3286.7075083466216
1672.9247793372379 3245.7004044903256
1673.6651301310812 3276.2390163869272
1674.4053017330934 3158.652039728231
1675.1452941899242 3226.121803148092
1675.885107548207 3107.8680692012963
1676.6247418545518 3113.23355761597
1677.3641971555535 3115.6396481229567
1678.1034734977893 3209.675232562304
1678.8425709278108 3172.9585896443455
1679.5814894921605 3173.3132705693793
1680.320229237359 2943.3456804942844
1681.0587902098978 3138.1882481742355
1681.7971724562685 3181.9724183055487
1682.5353760229264 3196.197830778568
1683.2734009563173 3041.72028514352
1684.0112473028657 2959.9173064234246
1684.7489151089794 3046.986852994064
1685.4864044210462 2978.9476321809534
1686.2237152854377 3024.442085001515
1686.960847748498 3003.609291142783
1687.6978018565642 2942.3611124315075
1688.434577655944 3024.6299185826397
1689.1711751929379 3038.250631856068
1689.9075945138156 2956.8461148492233
1690.6438356648396 2942.8546190884185
1691.3798986922448 2916.397707210111
1692.1157836422499 2962.553310607628
1692.851490561059 2841.7636435477107
1693.587019494853 2946.5534991989293
1694.3223704897991 2917.775427054162
1695.0575435920364 2774.911256248496
1695.792538847696 2915.0799228821816
1696.527356302886 2791.5643666737537
1697.2619960036936 2767.3031941150757
1697.9964579961907 2741.5932349565023
1698.730742326432 2552.7586446316996
1699.4648490404488 2690.275655404401
1700.1987781842563 2625.1085553301614
1700.9325298038548 2763.664324083243
1701.6661039452174 2810.0392869158823
1702.3995006543082 2739.159468939541
1703.1327199770658 2749.800848148877
1703.865761959416 2654.781775290955
1704.598626647261 2752.4189464961973
1705.3313140864866 2711.265266084018
1706.0638243229587 2609.740295049514
1706.7961574025303 2794.871029685034
1707.528313371029 2675.5525381805164
1708.260292274268 2388.2875475761857
1708.9920941580403 2615.535886415975
1709.7237190681226 2532.304189110422
1710.4551670502697 2545.732610977612
1711.18643815022 2436.8744471262726
1711.9175324136959 2649.3906055223565
1712.6484498863938 2554.5637441887543
1713.379190614005 2568.8005215461662
1714.109754642188 2738.380756120177
1714.8401420165883 2558.5290151802806
1715.570352782839 2606.0747658104856
1716.3003869865497 2598.7396334815176
1717.0302446733076 2577.285194460733
1717.7599258886876 2399.1924235066645
1718.4894306782444 2448.325259513878
1719.2187590875183 2474.341587591013
1719.9479111620203 2533.257310227865
1720.6768869472544 2524.933477201763
1721.4056864887025 2551.8070526125875
1722.1343098318284 2467.0828041535706
1722.8627570220742 2502.233094546058
1723.591028104871 2290.43232987554
1724.3191231256242 2414.8011427341808
1725.0470421297232 2339.2203763558387
1725.7747851625427 2454.4811855199937
1726.5023522694337 2393.512722909036
1727.2297434957363 2555.2863819210947
1727.9569588867635 2261.8680566845906
1728.6839984878152 2407.023523268612
1729.4108623441734 2322.3190531247938
1730.1375505011038 2401.56807006661
1730.8640630038426 2388.3112534655547
1731.5903998976264 2248.3247567677213
1732.316561227657 2454.3203910452876
1733.0425470391274 2385.1275394713657
1733.7683573772065 2359.909364204098
1734.4939922870508 2274.6295118223625
1735.2194518137949 2313.06063663271
1735.9447360025606 2340.031391026308
1736.669844898439 2394.329523870321
1737.3947785465189 2366.908352240665
1738.1195369918605 2197.1777135182415
1738.8441202795093 2246.3385650230857
1739.5685284544943 2322.169804710594
1740.292761561821 2270.907363717558
1741.0168196464838 2549.5566144898958
1741.7407027534518 2258.3493994991363
1742.464410927687 2287.319978546564
1743.187944214118 2341.71125639189
1743.9113026576688 2228.9189325876187
1744.634486303241 2389.651106253129
1745.3574951957125 2323.94632138925
1746.0803293799509 2222.8762203314136
1746.8029889008048 2182.60326771574
1747.5254738031017 2338.2145882040377
1748.2477841316504 2124.4093511302644
1748.969919931249 2222.364280616636
1749.6918812466665 2111.6607238585348
1750.4136681226646 2333.6846110810557
1751.1352806039777 2356.220748020679
1751.856718735331 2147.659681608585
1752.5779825614281 2263.405817821712
1753.2990721269507 2311.0580339137023
1754.0199874765676 2371.2991632678177
1754.7407286549314 2147.165166122147
1755.4612957066693 2243.867461199556
1756.1816886763954 2290.585097522243
1756.9019076087097 2294.1373513361214
1757.6219525481865 2340.4479493281065
1758.3418235393856 2419.4217002475366
1759.061520626854 2289.1662979587873
1759.7810438551096 2197.800796782979
1760.5003932686614 2214.4673260063846
1761.2195689119999 2225.6659766288367
1761.938570829594 2165.5545415675642
1762.657399065898 2238.967678949447
1763.376053665348 2202.644657253958
1764.0945346723602 2207.325952515742
1764.812842131334 2169.700372850448
1765.5309760866512 2147.1218418288386
1766.2489365826787 2198.7088031854864
1766.9667236637597 2240.2430902911565
1767.684337374223 2135.880125868215
1768.401777758383 2051.1500689556724
1769.1190448605284 2155.433875644934
1769.836138724937 2107.919838351255
1770.5530593958665 2298.2620751724953
1771.2698069175603 2040.4551838121552
1771.9863813342326 2182.6285135485014
1772.702782690094 2282.8358077420057
1773.4190110293293 2256.459172489818
1774.1350663961111 2196.352857837812
1774.8509488345844 2157.4892918305627
1775.5666583888924 2195.0543484160953
1776.2821951031437 2300.480923324256
1776.9975590214362 2157.3268154143425
1777.7127501878585 2341.2663772721794
1778.4277686464684 2171.6235175162155
1779.1426144413108 2115.6456176523166
1779.8572876164162 2271.4549086764882
1780.571788215797 2209.3204728533296
1781.2861162834415 2243.603075219961
1782.0002718633277 2121.1571676403987
1782.7142549994132 2207.8052018834655
1783.4280657356376 2236.5138902791673
1784.141704115922 2109.4502360439337
1784.855170184177 2169.3206904738545
1785.5684639842839 2076.4397408221384
1786.2815855601148 2070.657079556403
1786.9945349555237 2169.2265966799723
1787.707312214343 2170.8526132231605
1788.4199173803918 2237.4579505575575
1789.132350497468 2146.2055931137725
1789.8446116093583 2187.3154581760696
1790.556700759822 2233.545166855364
1791.2686179926077 1995.987890458708
1791.9803633514493 2130.2107425501663
1792.6919368800554 1959.704457028376
1793.4033386221236 2138.2074037928646
1794.1145686213295 2153.5860691006087
1794.8256269213307 2255.68450563558
1795.536513565774 2261.3274382402933
1796.247228598284 1994.7735574390947
1796.9577720624693 2077.277416460695
1797.6681440019165 2124.5948113511586
1798.3783444602013 1989.3717071856797
1799.0883734808776 2111.456422705798
1799.7982311074884 2148.7859704909497
1800.5079173835475 2026.0745953708447
1801.2174323525633 2138.235116789792
1801.9267760580187 2095.182089071014
1802.635948543386 1933.7926215041268
1803.3449498521113 2091.3227427873635
1804.0537800276325 2038.0076053876724
1804.7624391133668 2080.662537227816
1805.47092715271 1953.5545074500835
1806.1792441890484 2089.1289056202686
1806.8873902657433 2016.7142857372432
1807.5953654261448 2067.114629678046
1808.3031697135812 2125.0934375740053
1809.0108031713662 2038.4925984494662
1809.71826584279 2034.085849388102
1810.425557771141 2056.237070730822
1811.1326789996747 2192.4248930772496
1811.839629571632 2186.96408382621
1812.5464095302468 1902.8708509073876
1813.2530189187182 2117.299532645249
1813.959457780249 1962.9657977565064
1814.6657261580076 2159.1527581888813
1815.371824095153 1998.8470741667472
1816.0777516348262 2051.5389458932864
1816.78350882015 1961.373299766186
1817.4890956942272 2039.3226584481213
1818.1945123001533 2026.1937643406466
1818.8997586809928 1967.0321237019186
1819.6048348798067 2075.3825296649256
1820.3097409396287 1924.7740154801936
1821.0144769034796 2022.20547729517
1821.7190428143622 1936.6960649638052
1822.423438715261 2168.3161377392435
1823.1276646491478 2050.6503593177513
1823.8317206589727 2143.646319491278
1824.5356067876692 2062.690160771189
1825.2393230781581 1998.4520371083593
1825.942869573335 2058.5619746810676
1826.646246316086 2043.8711031693463
1827.3494533492758 2018.2575755487258
1828.052490715756 2062.4821957971976
1828.7553584583547 1962.9054478735482
1829.458056619891 2027.4442695239418
1830.1605852431585 1930.455523830265
1830.8629443709433 2007.8181971700608
1831.5651340460063 1973.2801198464556
1832.2671543110919 2074.538002627921
1832.9690052089318 2033.4869275018068
1833.6706867822395 1912.3677998343405
1834.3721990737104 2155.2672029482274
1835.0735421260233 2033.676731404515
1835.774715981841 2099.20276287647
1836.4757206838058 1962.8703463449515
1837.1765562745459 1848.7475004522935
1837.8772227966747 1832.5390645187722
1838.5777202927839 2166.0132053085636
1839.2780488054523 1957.650960088534
1839.9782083772352 2024.159363696103
1840.6781990506806 1926.3129267287277
1841.378020868313 2002.366825776987
1842.0776738726418 2002.420095580451
1842.777158106157 1934.4000831801586
1843.4764736113375 1944.8810402176575
1844.1756204306403 2013.3350797045866
1844.8745986065078 1910.3601201480828
1845.5734081813607 1870.6115261712425
1846.2720491976124 1890.8126830669128
1846.970521697649 1924.3228359636262
1847.6688257238511 1999.8031724174893
1848.3669613185684 2078.4260004691982
1849.0649285241452 2022.241591401426
1849.7627273829057 1937.8043517114697
1850.460357937156 2057.973982809591
1851.1578202291857 1739.9112611265805
1851.8551143012664 1926.1834421198491
1852.5522401956569 2020.6538765456837
1853.2491979545957 2013.0836403564313
1853.9459876203055 1862.9257453071186
1854.6426092349902 1764.6692583774602
1855.3390628408451 1937.2663655897127
1856.0353484800362 1896.3083422172735
1856.7314661947203 2001.327801087825
1857.4274160270397 1805.0140834327588
1858.123198019115 1928.3727678595878
1858.8188122130487 2006.0588204981257
1859.5142586509319 1901.1046435137355
1860.209537374838 1966.7280125425236
1860.9046484268183 1889.301460519467
1861.599591848917 1943.6846569964557
1862.294367683151 1735.7638086020975
1862.988975971528 1871.7804848116853
1863.6834167560355 1941.8505803856956
1864.3776900786452 1910.1421015282242
1865.0717959813119 1935.0173804922306
1865.7657345059724 1939.027833063667
1866.4595056945564 2095.782014475992
1867.1531095889586 1953.3410067512873
1867.846546231076 1977.6581972668596
1868.5398156627743 1948.7227445403921
1869.2329179259123 1921.5128915637738
1869.9258530623283 1919.6632369440417
1870.618621113843 1961.615069424023
1871.3112221222636 1849.9952798833237
1872.0036561293764 1794.3503079145044
1872.695923176956 1955.6807465988113
1873.3880233067594 1987.9313620792468
1874.0799565605212 1828.3378637144644
1874.7717229799673 2021.792731738621
1875.4633226068036 1877.9153065294468
1876.1547554827175 1874.1398866963616
1876.8460216493859 1863.3034193992269
1877.5371211484617 1893.103807241254
1878.2280540215852 1914.0924473306404
1878.9188203103804 1826.2033036272892
1879.6094200564548 1917.1105979463318
1880.299853301396 1832.5870651852176
1880.9901200867826 1936.89831384507
1881.6802204541673 1806.9319997748057
1882.3701544450942 1865.1226654735801
1883.059922101087 1840.6718555334269
1883.7495234636517 1833.9521191411338
1884.4389585742792 1877.9477626950716
1885.1282274744517 1888.1183776543924
1885.8173302056166 1927.715647183309
1886.506266809225 1748.7722770131554
1887.195037326701 1757.1039961236552
1887.8836417994517 1897.710368685559
1888.5720802688702 1919.6445341895894
1889.260352776333 1809.2297648386098
1889.9484593632042 1971.8062753153802
1890.63640007082 1793.2388711521885
1891.3241749405151 1839.5389142278636
1892.0117840135954 1834.775805822947
1892.6992273313572 1814.7449506453554
1893.3865049350788 1878.2873282838966
1894.0736168660223 1982.388930114678
1894.7605631654333 1832.6277227765288
1895.4473438745408 1900.6474232854114
1896.133959034556 1800.0233089669316
1896.820408686679 1839.9530783435457
1897.506692872088 1787.7720627312658
1898.192811631945 1858.3631734202095
1898.8787650073991 2035.723923269768
1899.5645530395832 2030.6515535772821
1900.2501757696118 1965.9431697444227
1900.9356332385796 1757.258612128037
1901.620925487574 1857.5178109327462
1902.3060525576602 1797.49210092796
1902.9910144898859 2003.596975159359
1903.6758113252872 1669.267749861032
1904.3604431048789 1937.7422124813177
1905.0449098696663 1716.6404308399797
1905.7292116606295 1895.507601476175
1906.4133485187394 1913.1286567596374
1907.0973204849488 1674.7830733398653
1907.7811276001976 1839.4726785999567
1908.4647699053967 1867.9457418002544
1909.1482474414588 1742.3405401553441
1909.8315602492694 1669.643928760815
1910.5147083696957 1854.8764236300274
1911.1976918436012 1837.1223026124874
1911.880510711815 1901.1451486913036
1912.5631650151681 1711.9406130555265
1913.2456547944657 1892.8770504035122
1913.927980090495 1898.825879120022
1914.6101409440362 1825.4189161914364
1915.2921373958416 1737.148398513557
1915.9739694866603 1914.9486926147958
1916.655637257214 1849.7961082784393
1917.3371407482136 1833.6138329010414
1918.0184800003572 1926.6950645312322
1918.6996550543154 1914.1902594264643
1919.3806659507554 1909.933948151785
1920.0615127303208 1979.8270312810225
1920.7421954336423 1814.7367809683
1921.4227141013343 1781.3423889829232
1922.103068773993 1818.541414302624
1922.783259492202 1978.593236311855
1923.4632862965227 1651.1737922845768
1924.1431492275078 1726.7136060273237
1924.8228483256917 1665.4411847058905
1925.5023836315922 1807.4827498474563
1926.1817551857057 1707.1334845257702
1926.8609630285227 1828.0824308259475
1927.5400072005123 1880.1248462879091
1928.218887742125 1622.6193330203832
1928.8976046938005 1688.821880588678
1929.5761580959588 1831.220390956038
1930.2545479890086 1856.7118359714932
1930.9327744133352 1850.4011997180792
1931.6108374093164 1744.3892106817555
1932.2887370173066 1914.1311641798839
1932.9664732776473 1598.5358401665464
1933.6440462306673 1933.6239344622554
1934.3214559166754 1667.2992077373478
1934.9987023759659 1548.8992168879136
1935.675785648813 1810.0357074792933
1936.3527057754836 1731.3261014456778
1937.029462796223 1811.927634470164
1937.70605675126 1854.7367173837433
1938.3824876808085 1727.4179201450995
1939.058755625072 1651.2764176935696
1939.7348606242267 1742.78365612063
1940.4108027184448 1823.0603108753462
1941.0865819478713 1904.4751425476825
1941.7621983526478 1677.0589799338409
1942.4376519728921 1603.3059135302733
1943.1129428487038 1837.1474796238367
1943.7880710201734 1647.1913263238298
1944.4630365273733 1833.4599971361968
1945.1378394103576 1686.2701866313862
1945.8124797091714 1922.9207112960205
1946.4869574638324 1638.5343639593607
1947.161272714353 1681.5697706383442
1947.8354255007234 1827.9677809243062
1948.5094158629272 1818.0245781141894
1949.1832438409183 1746.1357803053083
1949.8569094746435 1627.6367904780145
1950.530412804037 1807.4101858177153
1951.2037538690092 1810.9620147526653
1951.8769327094578 1706.7326572411887
1952.5499493652678 1679.0397871245416
1953.222803876306 1641.5061144637016
1953.895496282421 1708.9433923935499
1954.5680266234522 1577.7152690205626
1955.2403949392155 1676.2312647316332
1955.9126012695142 1693.885677168629
1956.5846456541403 1723.258160194587
1957.2565281328643 1635.5186284890178
1957.9282487454457 1726.5218575548479
1958.5998075316202 1884.2147146142538
1959.27120453112 1877.8246605552
1959.9424397836501 1756.9031897739042
1960.613513328908 1752.4445414984918
1961.2844252065697 1662.6265206336102
1961.9551754563017 1825.8874589980726
1962.6257641177453 1666.1141823198861
1963.29619123054 1719.3553876615035
1963.966456834296 1497.150122118364
1964.6365609686181 1595.4825222868
1965.306503673086 1755.915609467863
1965.976284987275 1765.7218204633682
1966.645904950734 1650.2875412956625
1967.315363603002 1644.1623671839698
1967.9846609836077 1668.5432553557584
1968.6537971320486 1678.0557305086925
1969.3227720878222 1707.2502908864506
1969.9915858904042 1619.8800301431802
1970.660238579252 1657.968505912941
1971.3287301938108 1797.9977924890513
1971.997060773514 1500.223170297793
1972.665230357772 1786.134654719437
1973.3332389859843 1586.4127521682724
1974.0010866975335 1667.9904170484879
1974.6687735317864 1892.6277165105032
1975.3362995280932 1794.0001357789624
1976.003664725793 1662.3367873005568
1976.6708691642052 1474.6640626367137
1977.3379128826364 1618.95128039441
1978.004795920373 1712.5394181292268
1978.6715183166925 1920.7357694105654
1979.3380801108524 1590.8922509657543
1980.0044813420973 1710.533929571453
1980.6707220496555 1667.7414747192463
1981.3368022727373 1569.0852907367985
1982.0027220505417 1636.3395523262873
1982.66848142225 1572.7717281615232
1983.3340804270283 1549.244468692305
1983.999519104027 1598.9104756333713
1984.6647974923835 1769.1130203182784
1985.329915631215 1701.5794973606844
1985.99487355963 1767.5850243962261
1986.6596713167146 1597.1377242694696
1987.3243089415428 1836.27550336258
1987.9887864731754 1632.1959107689695
1988.6531039506553 1606.3379397881758
1989.3172614130071 1721.8259702543442
1989.9812588992481 1698.05722504894
1990.645096448372 1738.0096965399305
1991.3087740993633 1793.2516610653547
1991.9722918911848 1558.7584569121677
1992.635649862792 1623.1090525959362
1993.2988480531185 1732.2919702228687
1993.9618865010852 1734.0052400442469
1994.6247652455968 1675.7684445656348
1995.287484325545 1574.7144215415444
1995.9500437798033 1831.438400779331
1996.6124436472292 1498.730730930039
1997.2746839666706 1578.2171308826585
1997.936764776954 1704.986545407853
1998.598686116895 1713.1847549700876
1999.2604480252903 1802.402842259316
1999.9220505409212 1506.6281567948447
2000.5834937025593 1558.6454805433664
2001.2447775489582 1621.9876447850395
2001.9059021188514 1642.058716705786
2002.5668674509616 1645.5255926800626
2003.2276735839987 1596.23592296855
2003.8883205566508 1682.0391176892128
2004.5488084075987 1589.1525635337723
2005.2091371755014 1627.4654613826638
2005.8693068990033 1582.0904899526465
2006.5293176167397 1707.6324812210605
2007.1891693673224 1522.5969318372333
2007.848862189354 1469.1134550609784
2008.5083961214223 1556.900198465869
2009.1677712020955 1519.1764090367135
2009.8269874699254 1475.2176552165788
2010.4860449634598 1690.8006781496042
2011.1449437212177 1459.2522078303252
2011.8036837817108 1693.3391256442228
2012.4622651834325 1748.1326132313745
2013.1206879648653 1736.0646688246875
2013.7789521644736 1757.602067876871
2014.4370578207036 1576.2681351900158
2015.0950049719922 1495.4626197850428
2015.7527936567585 1566.2546328726144
2016.4104239134067 1659.3851824814876
2017.067895780323 1659.6429684609889
2017.725209295886 1554.9861364378398
2018.3823644984514 1657.9005136605767
2019.0393614263648 1603.8655815256861
2019.6962001179545 1415.6494884505853
2020.3528806115355 1569.8617658457404
2021.0094029454067 1355.4979535557018
2021.6657671578487 1651.0510121390485
2022.321973287133 1679.051339145739
2022.9780213715148 1694.3553607579593
2023.6339114492293 1519.9418239475735
2024.2896435585026 1659.8605071751776
2024.9452177375442 1646.4325219474897
2025.600634024544 1700.940160783162
2026.2558924576842 1580.7511800803622
2026.9109930751292 1564.0049976900004
2027.565935915025 1556.949151806818
2028.2207210155066 1752.8061443819129
2028.8753484146964 1551.3839621301952
2029.529818150695 1639.978145470123
2030.1841302615903 1472.4409695552072
2030.8382847854573 1438.6164697954405
2031.4922817603601 1396.882798302903
2032.1461212243357 1573.928183077203
2032.7998032154192 1455.1360838883973
2033.4533277716218 1576.2976580524657
2034.1066949309443 1548.0955189142223
2034.7599047313688 1714.3424397038077
2035.4129572108704 1728.8857791356654
2036.0658524074006 1757.722909999487
2036.7185903589016 1653.2592867354265
2037.3711711032956 1560.8403072992867
2038.023594678496 1494.880910694566
2038.675861122394 1479.783313938289
2039.3279704728757 1623.0130870321525
2039.9799227678031 1304.8243028601269
2040.6317180450278 1504.9794588291445
2041.2833563423865 1594.641578836719
2041.9348376977014 1553.3155615320006
2042.5861621487784 1360.415982986305
2043.2373297334088 1340.8292060808358
2043.8883404893695 1598.9100090364425
2044.5391944544208 1657.4489829710044
2045.1898916663158 1508.0060796077878
2045.8404321627804 1700.5067118065847
2046.4908159815368 1370.316688415011
2047.1410431602853 1483.191610328441
2047.7911137367173 1364.0820616955714
2048.441027748504 1692.2219742279708
2049.090785233302 1565.1082731915913
2049.7403862287592 1489.481749548657
2050.389830772503 1704.6454245174923
2051.0391189021466 1468.4130539354726
2051.688250655294 1345.5466547225274
2052.337226069527 1645.5436573959971
2052.986045182417 1554.3692847281015
2053.634708031521 1332.5284449096025
2054.283214654375 1275.0143490785308
2054.931565088511 1217.4534093941204
2055.579759371436 1504.2291765982823
2056.2277975406523 1332.5440826082388
2056.8756796336384 1578.9647625678529
2057.5234056878617 1282.2733833851787
2058.1709757407752 1603.3065495776366
2058.8183898298194 1405.6175219105317
2059.465647992416 1558.8604716026696
2060.1127502659747 1568.140952635656
2060.759696687888 1527.50951028986
2061.4064872955405 1752.0749994659352
2062.053122126292 1643.5296655121226
2062.699601217497 1496.4969527337548
2063.345924606485 1605.7781191154395
2063.992092330587 1668.7103090897058
2064.638104427102 1675.018278241155
2065.283960933324 1608.714747774644
2065.92966188653 1585.538198992681
2066.5752073239855 1560.083043809089
2067.2205972829397 1535.7531045515263
2067.86583180062 1501.176937272812
2068.5109109142522 1498.4452037478095
2069.15583466104 1561.747876027494
2069.8006030781708 1647.8876587448929
2070.445216202821 1500.5318084165383
2071.089674072153 1653.9545523513978
2071.7339767233116 1379.871491831997
2072.3781241934303 1372.5228124217688
2073.0221165196253 1611.7530170154942
2073.6659537390024 1635.429696407071
2074.3096358886505 1615.7720538600142
2074.953163005637 1495.5384605502773
2075.596535127028 1477.0210658601468
2076.2397522898664 1482.5463733849203
2076.882814531182 1461.7360634942854
2077.5257218879924 1602.5234999944912
2078.1684743973 1472.7805704868506
2078.8110720960885 1346.295359924475
2079.453515021336 1510.177201135677
2080.095803209997 1596.0711830991559
2080.7379366990135 1417.576847365455
2081.37991552532 1550.58565434749
2082.0217397258275 1474.2527151025902
2082.6634093374414 1408.224506228338
2083.3049243970418 1609.4681126933979
2083.9462849415067 1424.867432508167
2084.587491007689 1561.9937538747768
2085.2285426324324 1661.344826983488
2085.869439852564 1588.7851619447176
2086.510182704902 1560.097048011877
2087.1507712262483 1531.3647161154936
2087.791205453381 1501.3947481705584
2088.4314854230743 1502.645305523144
2089.0716111720867 1537.5279187233568
2089.7115827371617 1400.6009201399195
2090.351400155023 1643.581113353257
2090.991063462385 1440.3213341536916
2091.6305726959527 1488.3046946732688
2092.2699278924047 1681.010032159826
2092.9091290884153 1381.7136627537452
2093.548176320641 1464.9933757824956
2094.187069625721 1550.8064805419313
2094.8258090402887 1440.1095282887277
2095.464394600951 1388.948388109789
2096.102826344313 1525.4216006173617
2096.741104306955 1737.388076135309
2097.379228525453 1638.7745384166028
2098.017199036358 1539.9367051628647
2098.6550158762147 1551.0641310185551
2099.2926790815527 1441.8489213960825
2099.9301886888825 1539.0791258195782
2100.5675447347076 1588.0165493618797
2101.2047472555114 1786.1930245583894
2101.841796287761 1464.6002010267107
2102.47869186792 1486.330982339708
2103.1154340324265 1495.0624359502717
2103.752022817709 1469.3490868267252
2104.388458260184 1561.4095321765246
2105.024740396251 1571.482418691916
2105.660869262292 1527.9244694655777
2106.296844894685 1584.6002158922727
2106.93266732978 1563.736784899777
2107.5683366039284 1240.0357949019879
2108.2038527534532 1392.5479690769903
2108.8392158146726 1557.462376572295
2109.4744258238843 1487.3437078589127
2110.1094828173755 1353.3114848367572
2110.744386831422 1622.4651874778056
2111.3791379022787 1542.5834779291677
2112.01373606619 1565.1589266273893
2112.648181359389 1362.860594134839
2113.28247381809 1683.0943337739184
2113.916613478492 1445.1752341614742
2114.550600376786 1699.4230810102977
2115.1844345491445 1595.6713699895176
2115.818116031729 1554.8539223948396
2116.451644860679 1636.8640899918232
2117.085021072133 1486.1027333300149
2117.718244702204 1403.3081914353047
2118.3513157869984 1380.137033074561
2118.984234362604 1356.8609603858986
2119.617000465092 1578.170253399238
2120.249614130529 1660.2204158705329
2120.8820753949585 1532.8734801871988
2121.5143842944162 1516.9677766484624
2122.14654086492 1324.3875273892777
2122.7785451424734 1549.3103702796436
2123.4103971630702 1306.2551406330488
2124.042096962681 1477.791631926543
2124.6736445772767 1342.8522821480697
2125.305040042802 1236.0192763591438
2125.936283395191 1357.6382823775089
2126.567374670365 1457.226487358023
2127.198313904233 1311.4937797805742
2127.8291011326855 1584.7138213076446
2128.4597363916037 1444.6676955557846
2129.0902197168507 1416.0928510252163
2129.720551144279 1489.3671972076859
2130.3507307097225 1389.5655750393041
2130.980758449008 1576.101081123632
2131.6106343979427 1491.0090282708995
2132.2403585923203 1515.509254088541
2132.8699310679276 1377.7453229803095
2133.499351860526 1352.191990950521
2134.1286210058715 1626.4167096123904
2134.7577385397053 1388.5385965410544
2135.3867044977487 1368.0579603968642
2136.0155189157176 1426.4677604818778
2136.644181829308 1439.9701613928687
2137.2726932742025 1255.592053011789
2137.901053286074 1540.0255399663943
2138.5292619005777 1389.4558044013438
2139.1573191533535 1499.9696950200146
2139.7852250800315 1708.7905621778311
2140.4129797162295 1350.420761817244
2141.0405830975433 1341.6104023651978
2141.6680352595613 1533.2867163523865
2142.2953362378576 1340.3945048229168
2142.9224860679915 1322.7494137772833
2143.549484785508 1263.3424357184892
2144.1763324259373 1593.689299956107
2144.803029024799 1506.5032030575471
2145.429574617594 1259.2921422720722
2146.0559692398165 1483.7184340382973
2146.682212926942 1331.1365942952361
2147.308305714432 1363.80173557143
2147.9342476377333 1510.8891672775264
2148.5600387322847 1423.9669377194289
2149.185679033506 1343.3368789532346
2149.8111685768017 1513.6949750091846
2150.4365073975678 1452.3602940556152
2151.061695531187 1591.4501952306368
2151.686733013021 1489.5087271456046
2152.311619878423 1525.5689547251486
2152.9363561627342 1564.2844176105773
2153.560941901278 1376.2131847957057
2154.1853771293663 1503.170567196053
2154.809661882293 1548.0151617072613
2155.433796195348 1486.1092042167284
2156.0577801037944 1409.804725953525
2156.681613642895 1343.5685484461949
2157.3052968478896 1399.3855235757003
2157.928829754006 1509.2663136423098
2158.552212396462 1544.6240784332153
2159.1754448104566 1385.6658090314404
2159.7985270311783 1408.3601568608176
2160.4214590938027 1279.0789732782905
2161.0442410334927 1332.972415115215
2161.6668728853874 1304.4063222759578
2162.289354684628 1596.4269507483205
2162.911686466332 1474.9715569407763
2163.533868265602 1507.3742290466457
2164.1559001175337 1429.6088109128436
2164.7777820572046 1430.7790856078418
2165.399514119681 1421.5170126870096
2166.021096340013 1533.699369112289
2166.6425287532384 1646.0891558708845
2167.263811394385 1405.4457634513692
2167.8849442984574 1382.013929201063
2168.505927500455 1203.5124366356822
2169.126761035366 1379.8240226750459
2169.7474449381552 1465.2018202390727
2170.367979243778 1283.9147720085662
2170.9883639871823 1386.588341582909
2171.608599203293 1359.6309517700583
2172.2286849270276 1582.2691440559997
2172.8486211932886 1513.3154977922904
2173.4684080369625 1407.2285268617136
2174.0880454929265 1440.6657841362744
2174.7075335960417 1462.273239584384
2175.3268723811543 1432.3552167007106
2175.9460618831 1312.3338028906915
2176.565102136701 1192.0355613091733
2177.1839931767627 1321.0590556450409
2177.802735038078 1345.4150505673435
2178.421327755432 1316.583770118887
2179.0397713635866 1551.5794565092385
2179.658065897298 1329.3337273312166
2180.276211391305 1314.9301630900673
2180.8942078803357 1467.6597832773114
2181.5120553991 1441.2000456654907
2182.129753982299 1265.806633565608
2182.7473036646206 1503.4858770267708
2183.3647044807367 1433.980381477392
2183.9819564653044 1388.5868949260873
2184.599059652968 1599.0953159774285
2185.216014078367 1390.6519540945142
2185.832819776113 1372.0831558477375
2186.4494767808137 1529.1569389713263
2187.065985127063 1612.0072644002157
2187.682344849436 1529.5845845400047
2188.298555982501 1421.1088953766737
2188.9146185608097 1400.5707666901387
2189.530532618901 1409.8465172435951
2190.1462981912937 1432.7352556790415
2190.761915312507 1497.8822030285307
2191.377384017036 1485.5896505111803
2191.9927043393654 1461.0772081187088
2192.6078763139667 1156.9015441158758
2193.2228999753006 1173.0811190588572
2193.837775357808 1189.3139391806067
2194.452502495922 1242.5285434505267
2195.0670814240602 1373.925927456059
2195.6815121766285 1502.835157540997
2196.2957947880186 1454.9350184455732
2196.9099292926057 1489.381327743189
2197.523915724758 1574.8116151699483
2198.137754118825 1425.0310643990556
2198.7514445091456 1676.0849705658507
2199.3649869300443 1374.4184317295333
2199.9783814158327 1569.4733577160396
2200.5916280008096 1683.4367432492418
2201.2047267192593 1481.9413883195384
2201.8176776054515 1357.6170888927713
2202.430480693649 1244.1014059818497
2203.0431360180955 1318.0020908059294
2203.6556436130195 1301.6390879305845
2204.268003512645 1322.9138972061926
2204.8802157511727 1500.654490780928
2205.492280362796 1555.9448040366317
2206.1041973816937 1464.4312487117672
2206.715966842032 1208.5982863797485
2207.3275887779655 1133.090373873552
2207.93906322363 1232.3019225767403
2208.550390213153 1331.5859634845212
2209.1615697806465 1290.6629211963882
2209.7726019602105 1255.106455508645
2210.3834867859277 1335.0045236655026
2210.9942242918787 1337.160316619871
2211.6048145121167 1267.1435912068393
2212.2152574806914 1700.1194012010474
2212.825553231638 1618.8444398001589
2213.435701798975 1554.5741159295562
2214.045703216707 1268.1870575178777
2214.655557518832 1103.4019482573938
2215.2652647393297 1267.422730906769
2215.874824912169 1160.8823660450416
2216.4842380713 1487.5931317016657
2217.09350425067 1426.8387501258628
2217.7026234842033 1447.168039311885
2218.311595805819 1467.5286108699943
2218.9204212494133 1313.6602854086836
2219.52909984888 1280.1344318656745
2220.137631638092 1246.4382307056517
2220.7460166509154 1422.4513827784153
2221.354254921198 1545.690191988722
2221.9623464827764 1449.5390394198762
2222.5702913694713 1334.5246645072518
2223.178089615096 1269.6250388367475
2223.7857412534486 1396.0176510596996
2224.39324631831 1312.3190681221854
2225.000604843457 1284.6661917221595
2225.607816862641 1411.3167950917355
2226.214882409611 1435.5560102231339
2226.8218015180973 1397.5882580162747
2227.4285742218217 1214.8356083170465
2228.0352005544864 1516.5552282544252
2228.6416805497847 1420.3799849512695
2229.248014241399 1461.6884950346016
2229.8542016629945 1369.6973256314975
2230.460242848223 1445.8561904252533
2231.0661378307304 1397.3554060089289
2231.671886644139 1502.74053232028
2232.277489322065 1410.7002656860009
2232.8829458981127 1447.947049843048
2233.48825640587 1485.249422076709
2234.0934208789095 1508.054055506757
2234.6984393507955 1443.5165087959049
2235.3033118550793 1574.2517192890086
2235.9080384252975 1470.3756576514893
2236.5126190949723 1167.8617911106523
2237.1170538976166 1386.4829338537063
2237.721342866729 1414.6657779952734
2238.32548603579 1442.8968980023953
2238.9294834382763 1496.7870324194969
2239.533335107646 1412.9638367615094
2240.1370410773434 1328.9932561723774
2240.740601380803 1479.7707055615324
2241.3440160514474 1395.7299697498604
2241.9472851226783 1473.3214125095558
2242.550408627896 1303.8369679848824
2243.1533866004793 1472.8445101101481
2243.756219073799 1506.5473443208257
2244.3589060812064 1373.6066090512027
2244.961447656049 1332.0104371434572
2245.5638438316564 1226.811476186134
2246.166094641343 1457.2921128324901
2246.7682001184166 1343.1970434885848
2247.3701602961664 1340.077775405634
2247.971975207871 1504.6286524122665
2248.5736448867974 1298.148508764135
2249.175169366197 1413.830695378726
2249.7765486793123 1437.3861049255743
2250.3777828593684 1521.9394787634933
2250.9788719395783 1497.731361108764
2251.579815953146 1391.3825624321462
2252.1806149332606 1223.647609708371
2252.781268913097 1488.6884087402198
2253.381777925817 1350.6381915917968
2253.9821420045737 1263.2539567053586
2254.5823611825035 1563.2250858696716
2255.1824354927303 1425.0252863343856
2255.782364968365 1258.9741429188425
2256.38214964251 1092.7324039600032
2256.9817895482483 1213.5483546897835
2257.5812847186553 1531.249686092997
2258.180635186791 1307.1260196825472
2258.779840985704 1598.4485873616152
2259.37890214843 1500.5116618671775
2259.97781870799 1390.3749359598835
2260.5765906973957 1352.4231290701327
2261.175218149645 1177.0722260755938
2261.773701097718 1143.3674330504366
2262.3720395745895 1109.5741141529086
2262.970233613216 1113.5083541999147
2263.568283246548 1355.1193511483923
2264.1661885075137 1460.6726848127437
2264.763949429038 1413.1873675153674
2265.3615660440246 1303.4007289763051
2265.959038385374 1266.3506621672575
2266.5563664859637 1420.737853314836
2267.153550378669 1373.1737501001285
2267.7505900963424 1248.003541537775
2268.3474856718312 1282.6534756822493
2268.9442371379664 1387.5966737615363
2269.5408445275643 1225.7017295434405
2270.1373078734377 1179.634898383855
2270.7336272083758 1370.5693272545816
2271.32980256516 1391.9266367761916
2271.925833976562 1451.6144471878154
2272.5217214753357 1241.334857385351
2273.117465094223 1399.2320016185784
2273.7130648659586 1206.8884653921214
2274.308520823257 1383.5067351476969
2274.903832998827 1537.3592028506544
2275.4990014253563 1549.640177264124
2276.094026135528 1561.9156628373603
2276.6889071620117 1175.5996048942106
2277.2836445374614 1321.962844642277
2277.878238294519 1312.2115066206268
2278.472688465812 1315.547319198427
2279.066995083962 1318.8439701308032
2279.6611581815705 1384.94509803695
2280.255177791232 1472.12263959466
2280.8490539455233 1559.4970815196239
2281.442786677013 1500.1994262830735
2282.0363760182554 1431.5623195842404
2282.6298220017943 1193.1148666717884
2283.223124660155 1450.090184936835
2283.816284025859 1464.1898770857772
2284.4093001314086 1501.8234577121207
2285.002173009292 1489.509134579292
2285.5949026919952 1477.1639007897165
2286.1874892119777 1256.1775753717761
2286.7799326016993 1201.8413083857429
2287.3722328936 1147.3111894494943
2287.964390120109 1291.6001984647232
2288.556404313642 1322.6949284855004
2289.1482755066027 1282.8417514657722
2289.7400037313873 1266.525637485465
2290.3315890203703 1400.1129104361937
2290.9230314059205 1404.384730708353
2291.5143309203904 1408.7071511315198
2292.1054875961236 1221.63094736095
2292.6965014654506 1221.1889724897574
2293.287372560684 1138.3755535486996
2293.878100914131 1436.367940982016
2294.468686558086 1414.0917919569192
2295.059129524827 1227.958381233262
2295.649429846617 1488.8583286490225
2296.239587555716 1439.4383606176543
2296.8296026843636 1265.376129509496
2297.419475264791 1475.8280440597405
2298.0092053292137 1414.809103122098
2298.598792909839 1137.594711137565
2299.1882380388597 1353.0374470781812
2299.777540748455 1456.5424624256934
2300.3667010707904 1415.7890088255765
2300.9557190380256 1086.1273983733083
2301.544594682302 1293.7903244644851
2302.1333280357503 1193.2949448483935
2302.721919130485 1436.5955973174516
2303.3103679986198 1442.2936862117917
2303.898674672242 1364.4661074012367
2304.486839183437 1272.188551503405
2305.0748615642697 1334.6401896680215
2305.6627418468015 1190.8098569696374
2306.2504800630704 1268.0550980552746
2306.8380762451143 1225.8396031701661
2307.425530424949 1284.726295329428
2308.012842634582 1343.7381396400076
2308.6000129060103 1491.313317771275
2309.187041271214 1327.3042429757568
2309.773927762164 1535.4075007201302
2310.3606724108213 1419.9833286733717
2310.9472752491274 1286.382595207815
2311.5337363090184 1441.418362945141
2312.120055622414 1333.7046596389262
2312.706233221221 1202.8145984703715
2313.2922691373424 1294.422352760716
2313.8781634026564 1440.3776512048812
2314.463916049037 1264.734932087636
2315.049527108342 1330.3873185150044
2315.6349966124235 1327.0194578674239
2316.2203245931123 1460.4295460490619
2316.8055110822315 1150.2011217779068
2317.3905561115935 1392.6913346324093
2317.9754597129977 1347.933119812165
2318.560221918229 1266.6585976775998
2319.1448427590603 1493.5520084991424
2319.729322267256 1296.1681244965825
2320.313660474563 1444.0014850650384
2320.8978574127195 1427.5712477288757
2321.481913113452 1486.1423189076834
2322.0658276084705 1067.7727076212204
2322.6496009294806 1102.6999270291608
2323.233233108165 1202.147957183607
2323.8167241762058 1301.8552864945675
2324.4000741652617 1384.1685063661278
2324.983283106987 1659.799586374102
2325.5663510330232 1417.9131870116294
2326.1492779749933 1405.9881798278504
2326.7320639645204 1191.60725375035
2327.3147090332004 1288.753067436164
2327.897213212629 1593.5430873296937
2328.4795765343843 1374.9877131584824
2329.0617990300307 1439.2174685634277
2329.643880731124 1503.544755817043
2330.22582166921 1484.256975033026
2330.807621875816 1200.8310025196406
2331.3892813824623 1301.8470582522266
2331.9708002206517 1398.049373063855
2332.5521784218818 1560.7638739601803
2333.133416017634 1439.9641943943288
2333.7145130393765 1438.0814878327183
2334.295469518571 1238.5949632278925
2334.876285486658 1430.9705368197783
2335.456960975076 1174.729792776303
2336.037496015242 1411.9472157897249
2336.6178906385667 1413.5665853420164
2337.198144876451 1536.8648130416107
2337.778258760278 1281.3682104886204
2338.3582323214214 1262.2633043343408
2338.938065591243 1531.9313001778678
2339.517758601087 1432.0917271033343
2340.0973113822965 1383.6687322254072
2340.676723966193 1079.8043215409919
2341.255996384094 1174.1512313798764
2341.835128667295 1425.9711471991477
2342.4141208470883 1283.8130950553186
2342.992972954751 1053.039415486088
2343.5716850215467 1019.4304530083007
2344.1502570787306 985.7238991887486
2344.7286891575386 1228.0946678235982
2345.3069812892045 1201.345043549583
2345.885133504944 1224.9203842615784
2346.4631458359618 1408.6329796923058
2347.04101831345 1301.5402995366878
2347.6187509685915 1602.2239863452678
2348.196343832553 1383.3863173315265
2348.7737969364935 1139.8487208265824
2349.351110311558 1042.75234224688
2349.9282839888765 1340.5656299773113
2350.5053179995757 1194.5914527361724
2351.0822123747585 1120.2287986282765
2351.658967145526 1121.1370520214164
2352.2355823429643 1122.1123713308425
2352.812057998144 1198.612463145926
2353.3883941421263 1284.104404862425
2353.9645908059647 1369.8247931796736
2354.540648020693 1506.827789228938
2355.116565817336 1307.5765488595187
2355.6923442269126 1203.1690075755628
2356.2679832804224 1100.289713100126
2356.8434830088518 1113.8461553863465
2357.41884344318 1122.0761200927077
2357.994064614377 1169.2472118024357
