#exp_cfg={"servo_angle": 0.0, "laser_lim": 100.0, "servo_angle_to": 18.0, "laser_wup": 0.0, "bt_dev": "EnSpectr-25AE3", "laser_wdn_max": 0.0, "frames": 10.0, "servo_used": 0, "servo_calib_use": 0, "laser_wdn_min": 0.0, "servo_pix_from": 90.0, "cooler_tout": 300.0, "servo_angle_from": 0.0, "servo_calib": "[-1.9174921013161362e-09, 3.9322238269163779e-05, -0.27385609119055809, 653.59552119713567]", "laser_autoctl": 0, "servo_pix_to": 3682.0, "laser_pw": 100.0, "cooler_on": 0, "laser_volt": 4.0, "cooler_autoctl": 0, "cooler_curr": 70.0, "cooler_startup": 10.0, "laser_fixed_pw": 0, "gain": 1.3, "offset": 2.53059635486, "servo_calib_degree": 3.0, "laser_curr": 55.0, "shutter": 8200.0, "servo_calib_step": 1.0, "laser_fixed_curr": 0, "exp": 2000.0, "ccd_volt": 4.7, "bt_addr": "00:06:66:62:5A:E3", "servo_delay": 500.0, "laser_autooff": 1}
#proc_cfg={"flat_auto_wnd": 200.0, "flat_auto_fr": 200.0, "flat_auto_shift": 5.0, "yconv": 1, "flatten": 1, "flatten_strength": 100.0, "xfrom": 300.0, "auto_max_frame": 2000.0, "auto_signal": 48000.0, "flat_auto_tol": 0.1, "autoclip": 1, "xrel_range": 0.0, "flat_auto_to": 4000.0, "intensity_adj": 1.0, "xrel": 7852.0, "rmhot": 1, "flat_auto_slit": 4.999999999999997, "auto_ini_exp": 300.0, "auto_off": 0, "xto": 2860.0, "flat_auto_ref": "", "flat_auto_rank": 1, "autobackg": 0, "xrel_adj": 0.0, "auto_black_lvl": 1, "base_wnd": 100.0, "sub_baseline": 0, "xconv": 2, "auto_max_exp": 1000.0, "auto_total_exp": 10000.0, "auto_exp": 0, "rmripple": 0, "black_lvl": 8222.9125, "shutter_clip_adj": 0.0, "auto_bckg": 0, "flat_auto_thr": 0.9, "subbackg": 1}
316.8218498245369 9331.600898088458
317.89969571804795 9352.050251430588
318.977263876126 9308.49332271966
320.05455438786703 9263.995945988998
321.1315673423287 9333.741186478568
322.2083028285215 9322.611190294565
323.2847609354267 9222.012978945628
324.3609417519747 9210.217278129106
325.43684536705587 9187.67345158304
326.5124718695279 9151.440986969272
327.58782134820103 9226.741566155219
328.66289389184385 9103.29511586784
329.7376895891921 9085.92805829162
330.8122085289342 9135.646801835506
331.88645079971866 9069.086504773239
332.9604164901575 9021.048351715148
334.03410568881554 9015.110465143687
335.1075184842266 9122.44161148076
336.18065496487543 8973.605473621828
337.2535152192122 8973.200375362203
338.32609933564163 8992.060236697735
339.39840740253203 8923.430639349779
340.4704395082099 8901.101265799636
341.5421957409617 8871.83065179786
342.6136761890357 8886.237288135593
343.6848809406365 8834.37945848249
344.75581008392874 8785.68267689965
345.82646370703696 8812.53225777403
346.8968418980512 8718.938661383934
347.96694474501055 8743.701660113382
349.0367723359268 8791.820690292716
350.106324758759 8755.410253090075
351.1756021014353 8601.543329585646
352.2446044518383 8703.849369033032
353.31333189781435 8664.778263077595
354.38178452716966 8624.851935034843
355.449962427665 8676.58240119329
356.51786568702846 8659.577407599125
357.58549439294256 8755.511173021649
358.6528486330535 8626.577904899827
359.71992849496564 8630.528059350894
360.7867340662433 8627.605900012863
361.8532654344144 8594.00949139805
362.9195226869597 8706.178044808792
363.9855059113288 8601.332157825167
365.05121519492604 8540.69411481234
366.11665062511565 8590.604140186617
367.1818122892273 8605.938673776556
368.2467002745434 8494.42232966577
369.31131466831175 8581.877127151956
370.375655557742 8614.079332177176
371.4397230299983 8573.694573063303
372.5035171722102 8589.525452758508
373.5670380714637 8613.93454151987
374.6302858148101 8603.258607986776
375.6932604892554 8599.931342934577
376.7559621817709 8579.076619173293
377.81839097928605 8543.09624518383
378.8805469686886 8524.247064135463
379.94243023683157 8521.364517486469
381.0040408705263 8524.788812670266
382.0653789565458 8541.60371880054
383.1264445816196 8485.891135368181
384.1872378324406 8469.56518760835
385.2477587956637 8423.271183608324
386.3080075579037 8444.05489502836
387.3679842057336 8431.385116785073
388.4276888256918 8384.045685760331
389.48712150426945 8400.823434102098
390.54628232792857 8315.524919019907
391.6051713830857 8333.239706778577
392.66378875611736 8335.599137529023
393.7221345333637 8341.385332233707
394.7802088011249 8260.904792160676
395.838011645661 8374.933152277012
396.89554315319765 8205.415221552897
397.9528034099112 8233.822915979894
399.00979250194723 8194.076433580385
400.06651051541485 8168.330571604305
401.1229575363741 8211.082918422117
402.17913365085224 8192.54763091621
403.23503894483656 8150.0281321433085
404.2906735042761 8134.450628181026
405.3460374150818 8112.171832079218
406.401130763119 8073.91030820469
407.455953634224 8124.2532936228
408.5105061141876 8106.308160857139
409.56478828876243 8007.163689385989
410.6188002436629 8100.361407316505
411.6725420645689 8011.410292579676
412.72601383711117 8040.828450822839
413.77921564689314 8063.898929550142
414.8321475794728 7978.488347441611
415.88480972036814 7952.755772978849
416.93720215506437 7987.038434295113
417.9893249690049 7980.336502866992
419.04117824759123 7947.91349590651
420.09276207619223 7927.285656450107
421.144076540133 7871.201793130215
422.1951217247042 7904.285919082092
423.24589771515275 7887.625656294939
424.2964045966928 7849.452244315215
425.34664245449494 7853.892426835851
426.3966113736933 7858.2121810490835
427.4463114393875 7806.642770259187
428.49574273662984 7788.911220982739
429.5449053504417 7828.040699923277
430.5937993658026 7805.277896847799
431.6424248676558 7786.956114100441
432.6907819409007 7730.580788504389
433.73887067040596 7774.159481222121
434.7866911409965 7765.616589336188
435.8342434374608 7750.025172600013
436.88152764455117 7685.204927257912
437.9285438469724 7699.43528256698
438.9752921294057 7698.001660919168
440.02177257648145 7673.057886673932
441.06798527279716 7591.794706388634
442.1139303029122 7625.371907692733
443.1596077513459 7741.254982060552
444.2050177025794 7677.968666127238
445.25016024105753 7556.298317876839
446.2950354511886 7621.565920375707
447.33964341733736 7615.484911409182
448.383984223834 7636.823948939978
449.4280579549686 7553.718787901019
450.471864694995 7566.90778407123
451.5154045281306 7611.097098835546
452.5586775385509 7499.368452901142
453.60168381039693 7544.332613942432
454.64442342776783 7579.133493484001
455.6868964747264 7528.383946430275
456.7291030353008 7476.239401513379
457.77104319347563 7508.092466235976
458.8127170332027 7504.884893177303
459.854124638392 7521.326854762216
460.895266092919 7538.730327378324
461.93614148061897 7534.033980900514
462.97675088529104 7520.076377425472
464.01709439069236 7543.016242824485
465.0571720805492 7493.906088319987
466.0969840385442 7474.780912213968
467.1365303483253 7566.460726548043
468.17581109350067 7505.024493640945
469.2148263576437 7499.248353064104
470.2535762242878 7462.9312355428165
471.29206077693016 7501.902826732975
472.33028009902773 7531.129640711355
473.3682342740012 7587.211145936133
474.40592338523857 7592.638174635356
475.4433475160804 7594.919558649347
476.4805067498364 7600.2803193893
477.51740116978 7645.440623297864
478.5540308591426 7682.490142633238
479.59039590112116 7709.006881220759
480.6264963788726 7717.7178606447005
481.6623323755193 7812.828773128958
482.6979039741436 7816.508864019344
483.7332112577915 7924.696879988883
484.76825430947247 7946.674951510558
485.80303321215797 8057.928577619443
486.837548048783 8073.322233603671
487.8717989022425 8161.070974004299
488.90578585539697 8163.222436852113
489.9395089910686 8226.215009191284
490.97296839203955 8136.989920153746
492.00616414106116 8084.779945444017
493.0390963208429 8035.005821736924
494.0717650140559 8111.105624709206
495.10417030333883 8063.442834262738
496.1363122712901 8053.554273698544
497.16819100046814 7928.374729464214
498.1998065734024 7813.886052681775
499.2311590725767 7834.631294469678
500.26224858044407 7742.152505051259
501.2930751794156 7710.9682126301095
502.3236389518679 7684.972579342709
503.35393998014115 7560.286977027981
504.38397834653733 7586.581671050041
505.4137541333221 7587.306138557416
506.4432674227228 7511.072427925031
507.4725182969323 7472.818467730343
508.5015068381035 7450.172910145778
509.53023312835467 7497.707354955737
510.55869724976765 7428.22898534711
511.58689928438434 7370.477899879397
512.6148393142121 7394.713311139164
513.6425174212218 7345.109302051014
514.6699336873462 7356.1841868101665
515.6970881944835 7335.7604750629525
516.7239810244901 7319.590456320184
517.7506122591931 7358.242029962074
518.7769819803761 7347.632717238119
519.8030902697901 7365.521220498
520.8289372091476 7399.797027838651
521.8545228801249 7444.7854132166585
522.8798473643619 7375.973226729757
523.9049107434621 7420.92998555012
524.9297130989908 7386.205003907319
525.9542545124805 7344.990725233077
526.9785350654201 7423.006489044683
528.0025548392696 7423.149450898794
529.0263139154504 7385.603085342113
530.0498123753423 7286.7280992639735
531.073050300296 7338.246785659838
532.0960277716204 7360.684725380258
533.1187448705896 7366.656681735198
534.1412016784416 7334.254450664562
535.1633982763833 7379.579864130341
536.1853347455726 7303.22294588973
537.2070111671401 7251.625037678634
538.2284276221817 7260.958235751868
539.2495841917516 7180.320955061374
540.2704809568677 7174.563597294788
541.2911179985167 7123.348130938665
542.3114953976419 7109.916453663338
543.3316132351592 7106.384720250618
544.3514715919409 7010.174929110561
545.3710705488247 7072.258464357959
546.3904101866156 7040.471591723341
547.4094905860784 7081.58118668112
548.4283118279418 7050.229279924194
549.4468739929034 7092.531309709363
550.4651771616191 6968.374396808938
551.4832214147063 7002.555655071464
552.501006832761 7024.660951429806
553.5185334963226 6986.870977718654
554.5358014859103 7014.355912894163
555.5528108820035 6993.898431184969
556.5695617650363 6983.264123001158
557.5860542154242 7028.468085757976
558.6022883135283 6942.65854886204
559.6182641396881 6967.206651092366
560.6339817741991 7023.201472753734
561.6494412973225 7114.947890302715
562.6646427892883 7064.918426587846
563.6795863302796 7019.881064065952
564.694272000459 7004.126895463143
565.7086998799423 6962.324394992445
566.7228700488104 7030.774156588365
567.7367825871115 6950.553231300955
568.7504375748576 7068.360239225633
569.7638350920224 6968.9166863258315
570.7769752185486 6982.60247566354
571.7898580343353 6930.012096190054
572.802483619258 6941.527102155438
573.8148520531431 6946.538079553613
574.8269634157932 6936.442881935004
575.8388177869692 6915.265236495345
576.8504152463938 6932.722810074144
577.8617558737587 6969.155382600156
578.8728397487175 6940.78646554045
579.883666950891 6994.702461151668
580.8942375598654 7023.139350429476
581.9045516551851 7037.279837857092
582.9146093163617 7050.129280053088
583.924410622878 7070.766678934616
584.9339556541727 7106.460068062048
585.9432444896538 7156.383015506646
586.9522772086875 7053.771245512653
587.9610538906127 7124.478422553117
588.9695746147318 7009.876709290293
589.9778394603054 7084.368358324527
590.985848506567 7046.867044170729
591.9936018327098 6953.4834425999115
593.0010995178891 6995.689368388079
594.0083416412344 6944.693635997271
595.0153282818283 6889.223914241242
596.0220595187293 6857.811922603326
597.0285354309508 6804.302554249884
598.0347560974806 6809.587586337495
599.0407215972609 6801.52608174965
600.0464320092051 6757.971883233899
601.0518874121954 6758.197121416977
602.0570878850685 6778.546715723933
603.062033506636 6837.84123495333
604.0667243556636 6893.263234682818
605.0711605108936 6792.354606966712
606.0753420510264 6871.529783932521
607.0792690547278 6835.3784607901525
608.082941600629 6898.537181888368
609.0863597673306 6767.448541525891
610.0895236333909 6844.928822633674
611.0924332773357 6907.121184337067
612.0950887776617 7031.154118721451
613.0974902128219 6994.475370047736
614.0996376612384 7118.0682119721
615.1015312013005 7096.667853025823
616.1031709113595 7188.190805363604
617.1045568697336 7099.9713280573615
618.1056891547069 7249.086646529006
619.1065678445229 7327.611390786345
620.1071930173985 7345.508928231486
621.1075647515099 7391.272291397319
622.1076831250048 7469.171501793181
623.1075482159849 7569.503045115462
624.1071601025305 7606.777012488916
625.1065188626781 7658.531040517143
626.105624574433 7863.947558075544
627.1044773157682 7781.361049494173
628.1030771646128 7881.260232457493
629.1014241988742 7906.346620779659
630.0995184964158 7948.166390456558
631.0973601350688 7990.350347995506
632.0949491926294 7980.695106269974
633.0922857468631 7960.009939219091
634.089369875499 7974.008674130384
635.0862016562278 7956.267560820386
636.0827811667077 7879.28225433298
637.0791084845641 7896.267747020762
638.0751836873878 7735.071757451695
639.0710068527369 7739.878526191637
640.0665780581294 7616.765707056668
641.0618973810506 7562.804440977141
642.0569648989604 7538.1776013423905
643.0517806892676 7391.7837305785815
644.0463448293649 7322.369195018041
645.040657396592 7303.052256831725
646.0347184682723 7201.496624955495
647.0285281216875 7168.0433403736
648.0220864340772 7141.595310656846
649.0153934826558 7044.272588317664
650.0084493446047 7029.7712639106485
651.0012540970674 6941.208588409985
651.9938078171526 6864.417370191821
652.9861105819346 6804.145949415135
653.9781624684565 6834.1093484387875
654.9699635537254 6816.927821474101
655.9615139147136 6837.8927167787
656.9528136283589 6666.619435168303
657.9438627715699 6661.830886333271
658.9346614212154 6628.86235979871
659.925209654135 6573.367070878405
660.9155075471263 6606.692807268705
661.9055551769616 6541.472364857106
662.895352620375 6577.299488716843
663.8848999540678 6552.385462266223
664.8741972547068 6410.453710269786
665.863244598926 6477.915263749679
666.8520420633213 6538.633673259981
667.8405897244611 6475.671764454317
668.8288876588758 6414.553034749182
669.8169359430613 6419.53114161697
670.8047346534822 6411.131327515382
671.7922838665672 6407.760689763848
672.7795836587156 6464.852173472302
673.766634106285 6479.91246092757
674.7534352856092 6478.915387570161
675.7399872729766 6460.551722451784
676.7262901446538 6460.025294506625
677.712343976862 6393.090653504029
678.6981488457986 6439.624608551125
679.6837048276229 6421.073687340385
680.6690119984596 6451.802724989383
681.6540704344043 6481.937684785318
682.6388802115107 6433.195246878953
683.6234414058108 6418.349764756796
684.6077540932874 6397.802139433492
685.591818349907 6428.163352728624
686.575634251587 6424.706047382972
687.5592018742263 6399.211764740637
688.5425212936734 6358.7935174054255
689.5255925857564 6348.368900048638
690.5084158262707 6373.237350239286
691.4909910909646 6350.688427218008
692.4733184555644 6292.54184026765
693.4553979957618 6243.176430016403
694.4372297872123 6302.391273552251
695.4188139055404 6278.154320291437
696.4001504263324 6240.877619894394
697.3812394251509 6270.520814622127
698.3620809775111 6224.813586846076
699.3426751589104 6301.2204227516795
700.3230220448004 6276.182510119731
701.3031217106054 6272.758998137749
702.2829742317172 6341.2650222262
703.2625796834873 6244.686068719821
704.2419381412474 6313.71073589294
705.22104968028 6280.3450333225655
706.1999143758458 6310.4743680900265
707.178532303169 6260.83574479197
708.1569035374378 6318.395810373867
709.1350281538107 6389.964992116325
710.1129062274158 6468.562492697422
711.0905378333373 6608.8828826992
712.0679230466376 6551.952746626544
713.0450619423427 6704.732618604468
714.0219545954424 6745.915259874326
714.9986010808989 6781.071140934898
715.9750014736292 6915.731086246342
716.9511558485392 7083.763066556625
717.9270642804786 7104.494651664396
718.9027268442787 7148.693912924007
719.8781436147328 7212.181877253033
720.8533146666014 7175.035254569504
721.828240074612 7120.186772697266
722.8029199134635 7125.995589103159
723.7773542578125 7082.234943532601
724.751543182294 6966.267202124642
725.7254867615029 6932.3560932184755
726.6991850700015 6887.062784445933
727.6726381823228 6821.602324710887
728.6458461729599 6755.446627670671
729.6188091163858 6832.467763268728
730.5915270870246 6702.498876660587
731.5640001592856 6662.559463647403
732.536228407529 6827.20164266666
733.5082119060917 6722.12843465066
734.4799507292755 6807.604736506835
735.4514449513481 6785.2046210029275
736.4226946465496 6866.308703883849
737.3936998890786 6795.488825405065
738.3644607531078 6745.362797426076
739.3349773127793 6735.070311139098
740.3052496421951 6689.331635997172
741.27527781543 6631.736140066006
742.2450619065221 6577.083335044263
743.2146019894826 6574.422544754414
744.183898138288 6428.409078481991
745.1529504268801 6375.943419995632
746.1217589291682 6327.468316820048
747.0903237190341 6260.919388724186
748.058644870318 6272.630187035202
749.0267224568397 6164.279055002322
749.994556552374 6147.908454286126
750.9621472306771 6172.056131270815
751.9294945654583 6096.823937552961
752.8965986304011 6073.039491140798
753.8634594991636 6072.423530120828
754.8300772453586 6110.282813543616
755.7964519425768 6103.607074941885
756.762583664371 6041.41064945847
757.7284724842611 6011.4288078383815
758.6941184757416 6043.104943793942
759.6595217122667 6018.926894525287
760.6246822672638 6037.47227229131
761.5896002141235 6025.841026975707
762.5542756262093 6017.219075327101
763.5187085768503 6048.973091353724
764.4828991393406 6027.199315880693
765.4468473869474 6005.05824191584
766.4105533929032 5997.596950238248
767.3740172304078 5926.206453458747
768.3372389726283 5964.5387715779125
769.3002186926988 5881.25062259024
770.2629564637282 5834.178839166391
771.2254523587872 5893.264046845604
772.1877064509154 5890.692377980936
773.1497188131179 5847.024104078387
774.1114895183728 5814.42317387355
775.0730186396268 5840.265208429936
776.0343062497905 5730.549157637505
776.9953524217381 5795.13629137564
777.9561572283274 5766.72690007645
778.9167207423689 5728.031082150853
779.8770430366476 5807.826435891523
780.8371241839159 5779.018117202254
781.7969642568951 5780.333143117277
782.7565633282757 5787.968849383125
783.7159214707099 5718.801715959799
784.6750387568281 5761.629261902956
785.6339152592227 5734.326513200966
786.5925510504512 5744.567301229437
787.5509462030477 5731.013292846042
788.5091007895098 5768.530063077455
789.4670148823006 5797.5304386819635
790.4246885538596 5728.618311459663
791.3821218765861 5677.504263714109
792.3393149228505 5703.547430762602
793.2962677649975 5712.20714699955
794.2529804753303 5789.560630604227
795.20945312613 5843.271920180532
796.1656857896378 5786.084865736094
797.1216785380675 5794.031687090158
798.0774314435985 5803.77713466813
799.0329445783846 5877.35025616635
799.9882180145414 5866.2115020001165
800.9432518241574 5902.182213089786
801.89804607929 5962.291281027674
802.852600851962 5937.903892480901
803.8069162141637 5957.8415741570625
804.760992237856 6064.410398046013
805.714828994971 6041.903632130343
806.6684265574077 6154.67233898916
807.6217849970271 6114.293036459834
808.574904385674 6072.513402734721
809.527784795142 6041.758759007706
810.4804262972102 6075.621206317793
811.4328289636178 5945.463352937207
812.3849928660748 5967.262627928666
813.3369180762638 5955.281657064522
814.2886046658241 5923.309582855489
815.2400527063783 5880.917283972795
816.1912622695108 5790.931337405253
817.1422334267718 5756.093008166407
818.0929662496856 5761.618556339936
819.0434608097457 5782.134227077323
819.9937171784059 5622.308793398248
820.9437354271013 5616.402947486591
821.8935156272255 5659.369510379045
822.8430578501484 5575.411576713218
823.7923621672016 5567.7339141112025
824.7414286496896 5570.459519916389
825.6902573688876 5589.466791491516
826.6388483960363 5600.5455615542505
827.5872018023492 5565.745922209735
828.5353176590033 5540.877128259831
829.4831960371503 5519.829637087234
830.4308370079016 5532.067087534771
831.3782406423525 5593.491190547378
832.3254070115545 5473.064101853685
833.2723361865319 5414.168259553497
834.2190282382799 5488.162300382421
835.1654832377644 5560.012100289843
836.1117012559116 5515.030955309265
837.0576823636256 5506.654756464674
838.003426631778 5418.15283394913
838.9489341312074 5439.492729691345
839.8942049327197 5426.241501638681
840.8392391070975 5486.779086501773
841.7840367250865 5446.402041953234
842.7285978573982 5427.437055370442
843.672922574724 5446.951957142621
844.6170109477152 5419.221430205935
845.560863046996 5467.818296229994
846.5044789431595 5347.573533205803
847.4478587067697 5401.256837120212
848.3910024083561 5411.6653577453735
849.333910118421 5445.081701776738
850.2765819074339 5384.048852128818
851.2190178458332 5485.556925739005
852.161218004032 5470.735152549589
853.1031824524016 5408.442457176925
854.0449112612987 5421.5459800125245
854.9864045010327 5470.64298479911
855.9276622418947 5382.91632671324
856.8686845541379 5388.725117196613
857.8094715079915 5356.748196640694
858.7500231736467 5390.7462403589
859.690339621271 5457.314909365478
860.6304209209939 5382.90977091468
861.5702671429244 5312.15641671178
862.5098783571284 5428.195838758003
863.4492546336569 5383.769477074992
864.3883960425155 5415.9448486426845
865.3273026536863 5401.254989203646
866.2659745371238 5492.25794159606
867.2044117627465 5465.454617542021
868.1426144004472 5443.36026022857
869.0805825200823 5496.880049119
870.0183161914847 5475.443405481243
870.9558154844526 5564.795815476456
871.8930804687552 5541.671506656156
872.8301112141307 5593.671460045891
873.7669077902865 5570.433099403018
874.7034702669062 5628.455848203501
875.6397987136315 5687.616489814039
876.5758932000863 5660.113477024273
877.5117537958522 5669.906912799607
878.4473805704911 5693.373917651317
879.3827735935283 5665.676399297701
880.3179329344603 5669.668384465855
881.2528586627541 5694.818364242072
882.1875508478479 5688.321075880026
883.1220095591489 5655.895692001132
884.0562348660296 5644.546766463116
884.9902268378391 5719.534067485197
885.9239855438955 5710.753411655298
886.8575110534839 5671.358658771421
887.7908034358588 5542.093584392371
888.7238627602474 5646.386466069989
889.6566890958475 5521.316335881634
890.5892825118208 5533.556664090559
891.5216430773125 5540.763291301091
892.4537708614189 5458.703324927824
893.3856659332196 5537.698769868892
894.3173283617652 5376.373848591706
895.2487582160684 5462.6451054557165
896.179955565116 5366.9732843202955
897.110920477864 5300.653014490739
898.0416530232451 5375.549136101197
898.9721532701478 5294.976295106842
899.9024212874428 5328.068675758418
900.8324571439662 5294.272130449824
901.7622609085302 5305.46599257518
902.6918326499072 5186.586582625901
903.6211724368477 5273.325222669691
904.5502803380696 5218.702659752263
905.4791564222614 5245.182550978376
906.4078007580792 5228.066725592633
907.3362134141571 5284.994522324769
908.2643944590909 5224.7421827537455
909.1923439614493 5259.563814455632
910.1200619897754 5148.637786015535
911.0475486125779 5218.086753941074
911.9748038983344 5177.531324200342
912.9018279155007 5166.239843652063
913.8286207324982 5108.571922927955
914.7551824177117 5138.759749632949
915.6815130395116 5189.694300731843
916.6076126662283 5215.754857989631
917.533481366163 5114.241253206377
918.4591192075914 5084.922712560394
919.3845262587565 5156.550867268781
920.3097025878706 5139.02204645725
921.2346482631237 5167.693279835532
922.1593633526682 5144.546919780859
923.0838479246304 5128.287246943635
924.0081020471061 5148.765713081877
924.9321257881656 5088.857715961845
925.8559192158464 5098.251771561734
926.7794823981512 5077.957808636157
927.7028154030686 5079.05709700344
928.6259182985414 5060.385199127887
929.5487911524906 5095.084736839494
930.4714340328119 5043.01249370293
931.3938470073608 5031.309231418459
932.3160301439748 5128.241174262975
933.2379835104548 5069.99200398015
934.1597071745709 5108.124952222367
935.0812012040769 5142.096278923866
936.002465666681 5002.355707429879
936.9235006300696 5081.421598061984
937.8443061619055 5039.220991279837
938.7648823298077 5036.302801948158
939.6852292013809 5084.236975061218
940.6053468441951 5019.785178259301
941.5252353257874 5009.210753290316
942.4448947136698 5041.2305658184005
943.364325075323 5009.275046717486
944.2835264782043 5016.277864041288
945.2024989897309 5055.608069343982
946.1212426773054 5098.444996135178
947.0397576082851 5022.883438813298
947.9580438500125 4972.005516200955
948.8761014697939 5007.995478174925
949.7939305349064 5073.748121040402
950.7115311125999 5039.689279161495
951.6289032700952 5078.794718395302
952.5460470745875 5040.412070863849
953.4629625932339 5086.988788789116
954.3796498931715 5152.064173822814
955.2961090415029 5112.783647379811
956.2123401053068 5146.114686816852
957.1283431516276 5148.803003212488
958.0441182474842 5042.427252187616
958.9596654598663 5016.349040691317
959.8749848557309 5091.220098913191
960.7900765020167 5028.426945499829
961.7049404656209 5031.92150973034
962.6195768134185 5003.583541902301
963.5339856122537 5010.922888802854
964.4481669289453 4979.463566383997
965.3621208302793 4937.872154426815
966.2758473830145 4969.779145244092
967.1893466538822 5011.356498199843
968.1026187095813 4974.272480630558
969.0156636167867 5043.825268031333
969.9284814421426 4928.131304879759
970.8410722522622 4935.516462073176
971.753436113735 4908.514682966218
972.6655730931161 4896.142654340098
973.5774832569368 4906.100818091233
974.4891666716958 4885.382021148149
975.4006234038698 4880.41668178838
976.3118535198955 4923.41227278887
977.2228570861935 4884.258033877837
978.1336341691494 4884.303457306933
979.0441848351202 4848.973351299297
979.9545091504333 4882.3555813018165
980.864607181391 4922.144574414181
981.7744789942699 4847.129058041157
982.6841246553086 4937.632086551037
983.5935442307236 4898.4585425230525
984.5027377867027 4928.9653307067265
985.4117053894024 4962.357235615423
986.3204471049557 4931.291168424624
987.2289629994648 4965.158898983444
988.1372531390007 4956.776682267685
989.0453175896091 4926.914427361694
989.9531564173067 4965.068364939754
990.860769688079 4920.565029551408
991.7681574678918 5032.795283951843
992.6753198226706 5004.861430411496
993.582256818323 4998.627256032357
994.4889685207218 5074.195228224955
995.3954549957143 5078.776182299507
996.301716309119 5042.022379810844
997.2077525267232 5174.856856105848
998.1135637142943 5059.892483235095
999.0191499375615 5126.831964858987
999.924511262232 5000.834834603822
1000.8296477539861 5080.756095740138
1001.7345594784656 5049.152982219712
1002.6392465012996 5118.723836527579
1003.5437088880753 5106.027873614489
1004.4479467043584 5057.908892727424
1005.3519600156869 4992.57565473998
1006.2557488875718 4950.687270596087
1007.1593133854858 4937.35500664497
1008.0626535748888 5051.22151650536
1008.9657695212009 4976.527567185641
1009.8686612898182 5014.336087746182
1010.7713289461135 4932.446464777356
1011.6737725554212 4979.623052649062
1012.5759921830577 5015.378040628
1013.4779878943027 5042.202688600073
1014.379759754418 4920.5090075436165
1015.2813078286254 4909.7807184673575
1016.18263218213 4916.577743849199
1017.0837328801026 4954.165561861959
1017.9846099876886 4938.047811087793
1018.8852635700023 4906.520145307194
1019.7856936921362 4859.123814862485
1020.6859004191447 4901.0043160946325
1021.5858838160675 4814.40201955788
1022.4856439479063 4894.251107088584
1023.3851808796389 4870.776727752224
1024.2844946762143 4910.380432644601
1025.183585402554 4806.951420707816
1026.082453123554 4885.238452609474
1026.9810979040776 4836.589982799503
1027.8795198089647 4775.086568758203
1028.777718903024 4824.332880698437
1029.6756952510368 4812.524604065988
1030.5734489177648 4765.5535363033505
1031.4709799679313 4793.926397253859
1032.3682884662358 4768.444676468607
1033.2653744773506 4720.400103048427
1034.1622380659192 4719.163544469105
1035.058879296559 4728.1380663597665
1035.9552982338591 4748.163558694208
1036.8514949423825 4790.97913688671
1037.7474694866614 4706.536445795422
1038.6432219312028 4772.944277354849
1039.5387523404825 4730.144920645117
1040.4340607789582 4720.698370714476
1041.3291473110476 4701.395793533261
1042.2240120011465 4799.303269241666
1043.1186549136273 4770.875560467416
1044.0130761128294 4776.666419554879
1044.9072756630649 4788.309715230036
1045.8012536286205 4825.0001995350995
1046.6950100737577 4831.219871341981
1047.588545062701 4801.985921109339
1048.481858659663 4816.666571399297
1049.3749509288118 4877.671211641752
1050.2678219343034 4769.9951856160205
1051.1604717402515 4804.942881318395
1052.0529004107575 4887.026860385679
1052.9451080098825 4899.7017039104385
1053.8370946016694 4842.016371484056
1054.7288602501267 4903.2898970927645
1055.6204050192446 4883.744477177192
1056.511728972977 4946.003119267108
1057.402832175254 4888.3196564078735
1058.2937146899785 4862.312853135012
1059.1843765810263 4854.15252881876
1060.0748179122456 4892.476988110144
1060.9650387474576 4931.846139263247
1061.855039150456 4924.0329237221285
1062.7448191850071 4893.333726588999
1063.6343789148505 4896.576714724168
1064.5237184037014 4828.113179700288
1065.412837715241 4893.734464833565
1066.3017369131267 4777.098549722322
1067.190416060992 4818.9197365129
1068.0788752224398 4762.8236429642575
1068.9671144610438 4845.250112636001
1069.8551338403558 4823.347569464784
1070.7429334239023 4906.957004071517
1071.6305132751695 4846.491968546167
1072.517873457633 4872.380628126724
1073.4050140347335 4810.839414618258
1074.2919350698776 4754.947025401576
1075.1786366264623 4762.526343757716
1076.0651187678395 4818.852238578135
1076.95138155735 4783.207488208565
1077.8374250582929 4771.368841227881
1078.7232493339507 4716.429855957124
1079.608854447577 4687.281465159015
1080.4942404623907 4762.704986002102
1081.3794074415982 4776.810636407632
1082.2643554483657 4710.7122956643525
1083.149084545841 4703.641539525713
1084.033594797138 4722.844590059447
1084.9178862653516 4810.966345460147
1085.8019590135427 4685.872265037241
1086.6858131047484 4761.115760434365
1087.5694486019802 4786.221907767211
1088.4528655682225 4829.713125397744
1089.3360640664287 4762.06039755425
1090.2190441595321 4756.696954593399
1091.1018059104317 4786.237528902087
1091.98434938201 4860.230037501124
1092.866674637111 4802.457494559723
1093.748781738559 4799.806324780806
1094.6306707491512 4784.683231932678
1095.5123417316554 4723.189259736368
1096.3937947488157 4799.659369247371
1097.2750298633455 4777.015921516386
1098.156047137938 4799.38026582988
1099.0368466352556 4807.084606482834
1099.9174284179317 4675.174331776196
1100.7977925485757 4726.906851100355
1101.6779390897755 4669.208254039895
1102.5578681040806 4703.279499941442
1103.4375796540226 4716.680111535281
1104.3170738021054 4639.941281501648
1105.1963506108077 4674.306643187086
1106.0754101425773 4632.771222275939
1106.9542524598382 4609.898072408969
1107.8328776249855 4657.817800243358
1108.7112857003904 4650.90852058552
1109.5894767483987 4618.308764286595
1110.4674508313292 4602.939317199704
1111.3452080114657 4712.693779757308
1112.2227483510815 4587.246736499591
1113.1000719124077 4724.506452096796
1113.9771787576592 4666.873751704666
1114.854068949022 4609.236859657676
1115.7307425486542 4673.7559352486
1116.6071996186893 4686.234398934379
1117.483440221229 4813.579640675195
1118.3594644183577 4788.921839395228
1119.235272272128 4789.012390781119
1120.1108638445658 4879.119563333783
1120.9862391976712 4888.7362312499545
1121.8613983934229 5000.057846341593
1122.7363414937627 4959.132987269733
1123.6110685606182 5020.377033178982
1124.485579655884 5086.543985238698
1125.359874841426 5168.271157185064
1126.2339541790916 5150.905280910193
1127.1078177306936 5239.772978266365
1127.9814655580267 5143.233502349188
1128.854897722851 5162.056770407586
1129.7281142869106 5183.166524798206
1130.6011153119125 5300.751338699751
1131.473900859548 5229.868561154226
1132.3464709914697 5260.493241304752
1133.2188257693178 5217.776890876442
1134.0909652546961 5237.966678414647
1134.96288950919 5147.929142733667
1135.8345985943506 5189.536601811086
1136.7060925717087 5068.192319591813
1137.57737150277 5056.79996369947
1138.4484354490069 4919.5608296569535
1139.3192844718778 4920.775699611373
1140.1899186327992 4941.034094536612
1141.060337993178 4981.154761296288
1141.930542614382 4812.999844572418
1142.8005325577597 4935.624939381522
1143.670307884635 4666.126302742561
1144.5398686563003 4826.815994138723
1145.409214934025 4674.77099994397
1146.2783467790541 4622.8032641282825
1147.1472642526023 4591.150614720607
1148.0159674158622 4590.848252570269
1148.8844563300026 4520.606552414165
1149.7527310561618 4489.274836336761
1150.6207916554504 4482.138845800322
1151.4886381889592 4471.7258408231555
1152.3562707177498 4497.016521148895
1153.2236893028585 4443.189675860411
1154.090894005296 4408.570938044098
1154.9578848860474 4415.344816711715
1155.8246620060709 4344.267776372963
1156.6912254262988 4398.871431047743
1157.5575752076438 4358.702377596357
1158.42371141098 4387.065721143431
1159.2896340971656 4305.316808774313
1160.1553433270346 4348.905388699135
1161.0208391613887 4313.477534544846
1161.8861216610057 4309.8373426532535
1162.75119088664 4349.156425795595
1163.6160468990201 4315.742048693816
1164.4806897588442 4310.724928960552
1165.3451195267917 4279.325946404157
1166.2093362635114 4344.385019629764
1167.0733400296285 4322.934387917705
1167.9371308857444 4297.069782404567
1168.8007088924278 4327.73264129608
1169.6640741102328 4269.196750363388
1170.5272265996773 4277.930410493182
1171.390166421259 4187.397665768454
1172.252893635452 4332.060054854456
1173.1154083026995 4294.455274399786
1173.977710483421 4304.884618639489
1174.8398002380145 4293.110183888485
1175.7016776268483 4359.040113182631
1176.563342710264 4323.135656802964
1177.4247955485826 4309.4130766311155
1178.2860362020947 4243.162389164483
1179.147064731069 4304.837207223502
1180.0078811957483 4271.646721189098
1180.8684856563486 4320.024249523579
1181.7288781730604 4380.517305465963
1182.589058806052 4393.4833482451895
1183.4490276154593 4399.461168605138
1184.3087846614017 4370.975391531964
1185.1683300039676 4479.751576905224
1186.027663703222 4559.854263036583
1186.8867858192025 4507.77332823869
1187.7456964119228 4522.963966736855
1188.6043955413716 4592.786946502992
1189.4628832675116 4597.876512371805
1190.3211596502842 4510.865735122725
1191.179224749596 4618.202333360471
1192.0370786253388 4663.030892249361
1192.8947213373758 4703.4489603109605
1193.7521529455407 4723.281228033827
1194.6093735096438 4627.440419194618
1195.466383089477 4659.081709756948
1196.3231817447977 4736.417565365277
1197.1797695353398 4620.681466520059
1198.0361465208189 4619.732522492684
1198.8923127609214 4622.31426880157
1199.7482683153048 4699.583393742484
1200.6040132436028 4714.366738606417
1201.459547605431 4582.742675384792
1202.3148714603722 4598.335206688962
1203.1699848679855 4627.039734703035
1204.0248878878065 4619.6604638423105
1204.8795805793507 4605.103033481184
1205.7340630020935 4635.907867953958
1206.5883352155033 4623.362569427054
1207.4423972790064 4533.271574504973
1208.2962492520237 4528.43194058087
1209.1498911939307 4586.759277977228
1210.0033231640937 4540.767336791772
1210.8565452218427 4437.827161488044
1211.7095574264913 4484.905164869662
1212.5623598373222 4462.379843658049
1213.4149525135963 4423.198517329067
1214.2673355145507 4322.941670222832
1215.1195088993936 4315.630517771893
1215.9714727273113 4235.957738665931
1216.8232270574663 4357.239992687353
1217.6747719489904 4337.965377135572
1218.5261074609934 4301.045635609052
1219.3772336525653 4214.919558289472
1220.2281505827668 4301.590767565422
1221.0788583106296 4230.496194353331
1221.9293568951707 4240.866076124164
1222.7796463953746 4189.716677767419
1223.629726870202 4146.950342713976
1224.4795983785934 4136.546472693796
1225.3292609794553 4211.516982644234
1226.1787147316809 4183.259682893027
1227.0279596941327 4263.181204465238
1227.8769959256424 4218.588680718347
1228.7258234850306 4189.505223001562
1229.5744424310833 4199.279484578269
1230.422852822563 4157.307385049054
1231.2710547182105 4206.859648185015
1232.119048176739 4154.961243965524
1232.9668332568417 4223.786142948776
1233.8144100171812 4209.838654797338
1234.6617785163999 4251.678398684066
1235.508938813111 4181.173099986133
1236.3558909659114 4113.020414321652
1237.2026350333617 4272.380394258842
1238.049171074008 4340.9790198399105
1238.8954991463652 4203.693875871233
1239.741619308932 4106.447676009457
1240.587531620169 4284.89763795971
1241.4332361385277 4170.375738196873
1242.2787329224248 4094.264504156282
1243.1240220302534 4152.2027172475855
1243.9691035203869 4138.301475480089
1244.813977451171 4171.170009386204
1245.6586438809263 4150.435890253766
1246.5031028679496 4064.8313149786
1247.3473544705157 4102.383208879561
1248.1913987468706 4142.564528223295
1249.0352357552383 4056.344986769202
1249.8788655538228 4074.0184600097173
1250.7222882007918 4135.2462510783025
1251.565503754302 4143.227321707959
1252.4085122724755 4127.910896940806
1253.2513138134182 4091.6938093627905
1254.0939084352049 4092.0171610544166
1254.9362961958905 4081.1490300402793
1255.7784771535007 4152.627770925078
1256.6204513660432 4170.997047995605
1257.4622188915 4129.348854346258
1258.3037797878242 4192.437794592776
1259.1451341129468 4207.597483577884
1259.9862819247755 4162.430882671348
1260.8272232811978 4140.774697108174
1261.6679582400666 4120.573298978448
1262.5084868592203 4078.7026745670555
1263.34880919647 4142.931483860379
1264.1889253095997 4135.347246078311
1265.0288352563712 4117.316282929293
1265.8685390945266 4073.9886429014164
1266.7080368817751 4116.578400084703
1267.5473286758115 4085.7696480653785
1268.386414534294 4126.833332577459
1269.2252945148703 4077.704429129249
1270.0639686751547 4081.1255893054795
1270.9024370727402 4160.321720666253
1271.7406997651997 4044.762677884102
1272.5787568100714 4140.689734109534
1273.4166082648808 4116.743310078438
1274.2542541871244 4097.481425522341
1275.091694634275 4048.6152814938337
1275.9289296637817 4158.099527479725
1276.7659593330663 4017.8707670165577
1277.6027836995308 4070.4536413132237
1278.4394028205552 3984.5240602929152
1279.2758167534867 4027.11693312587
1280.112025555658 4090.0558038603535
1280.9480292843746 4102.09667986525
1281.7838279969128 4071.376122181112
1282.6194217505326 3963.7742675824093
1283.4548106024686 3932.862573876966
1284.289994609926 4009.073730805839
1285.1249738300921 4097.17432755582
1285.959748320127 3922.9600104946658
1286.7943181371702 4055.2411239184416
1287.6286833383328 4009.8583981439806
1288.4628439807038 3990.8411820915744
1289.2968001213521 3953.6531490130865
1290.1305518173194 3992.36604110761
1290.9640991256183 4102.27352535096
1291.7974421032523 4051.6547837079243
1292.630580807183 4085.963640478378
1293.463515294361 4050.8744135625807
1294.29624562171 4115.713867055927
1295.12877184613 4010.0228987949276
1295.961094024493 4043.8278435484617
1296.79321221365 4081.6382707346957
1297.6251264704333 4115.067628361822
1298.4568368516466 4115.384925178811
1299.2883434140658 4117.207427513174
1300.1196462144526 4127.972096466574
1300.9507453095375 4091.1362829182485
1301.7816407560313 4129.286822726341
1302.6123326106172 4123.767370818172
1303.4428209299622 4082.905145958578
1304.2731057707024 4153.076254410056
1305.1031871894502 4087.693178847573
1305.933065242798 4181.39441704869
1306.7627399873181 4162.274253871481
1307.5922114795467 4186.557494819304
1308.4214797760123 4111.682094627531
1309.2505449332057 4130.755552502926
1310.0794070076026 4144.241963243982
1310.9080660556538 4176.704537303557
1311.736522133786 4126.229515488164
1312.5647752983987 4206.750190498424
1313.3928256058734 4217.392034210707
1314.2206731125661 4204.341947012254
1315.048317874809 4161.02349357285
1315.8757599489109 4173.1053143196905
1316.7029993911547 4242.720441500241
1317.5300362578055 4352.855659176502
1318.356870605101 4228.800489007715
1319.183502489257 4199.672518014662
1320.0099319664623 4271.268354112386
1320.836159092889 4322.340190016498
1321.66218392468 4314.325914735591
1322.4880065179532 4355.133536986662
1323.3136269288134 4260.06685638195
1324.1390452133292 4288.411090063966
1324.9642614275563 4306.182142774309
1325.7892756275214 4405.954722630787
1326.6140878692295 4318.319566561155
1327.4386982086617 4282.429281078737
1328.2631067017755 4445.410929277841
1329.0873134045069 4311.0978533892385
1329.911318372764 4283.7144146095625
1330.735121662441 4205.925244207918
1331.558723329399 4273.250309782763
1332.3821234294774 4251.349544175516
1333.2053220185007 4178.0575825423275
1334.0283191522612 4272.88282719294
1334.851114886529 4168.172443040824
1335.6737092770582 4165.593303060044
1336.4961023795695 4153.332444530212
1337.3182942497697 4129.3497529654305
1338.1402849433325 4200.651050099358
1338.962074515921 4070.3051896525876
1339.7836630231632 3985.728156957128
1340.6050505206676 4125.450644254835
1341.426237064028 4110.578160963743
1342.2472227088037 4023.3792303075097
1343.0680075105338 3927.775218853362
1343.888591524741 3993.430263852037
1344.7089748069138 4053.4804938465154
1345.5291574125276 3950.9121134099028
1346.3491393970307 3938.4053681948562
1347.168920815846 3947.141939773033
1347.9885017243778 3881.0715191957083
1348.8078821780036 3981.1762448830696
1349.6270622320844 3876.438632767907
1350.4460419419447 3968.7723166281276
1351.2648213629054 3889.3098246870345
1352.0834005502438 3937.4309452842817
1352.90177955923 3930.3665992837623
1353.7199584451064 3949.976352858613
1354.5379372630887 3985.901652704061
1355.355716068374 3957.1726331785867
1356.1732949161305 3921.2065083913926
1356.9906738615155 3935.586724168891
1357.8078529596478 3901.3796307426833
1358.6248322656375 3893.473925392471
1359.441611834567 3817.9140100485083
1360.2581917214866 4047.7130921699245
1361.0745719814367 3808.618741500183
1361.890752669433 3836.0972846931845
1362.7067338404577 3876.2217609738154
1363.5225155494845 3850.3607986978977
1364.3380978514506 3938.9591855246786
1365.1534808012839 3862.111277643885
1365.9686644538815 3752.2121607421905
1366.783648864117 3858.639776276791
1367.5984340868417 3874.496462332646
1368.413020176893 3915.188859102492
1369.2274071890715 3777.4321331870983
1370.0415951781652 3837.469868234811
1370.8555841989346 3622.5947178247748
1371.6693743061223 3808.352474648599
1372.48296555444 3833.473199971545
1373.2963579985844 3901.6742694766676
1374.1095516932255 3762.6500573952544
1374.9225466930166 3806.855275955249
1375.7353430525782 3760.462145654041
1376.5479408265164 3728.9991943249634
1377.36034006941 3762.686930812167
1378.1725408358216 3787.3606856463457
1378.9845431802805 3648.468910729537
1379.796347157304 3698.263554703587
1380.6079528213813 3840.186241400935
1381.4193602269788 3755.1649845028537
1382.230569428546 3760.6058475469026
1383.0415804805016 3805.1986194933356
1383.852393437246 3646.4649983005365
1384.6630083531563 3766.1961179761356
1385.4734252825892 3787.7284681038313
1386.2836442798798 3777.53364617046
1387.0936653993322 3751.126415526642
1387.9034886952395 3740.2251374336565
1388.713114221864 3789.5234337170536
1389.5225420334482 3660.5142180219177
1390.331772184214 3673.0400278359994
1391.1408047283585 3700.080353320275
1391.9496397200564 3696.874308824709
1392.758277213461 3840.9306253927525
1393.5667172627054 3703.2437022347485
1394.3749599218918 3654.484088210794
1395.1830052451114 3521.33737643
1395.9908532864265 3689.0789123836707
1396.7985040998774 3624.4224427023983
1397.6059577394808 3682.489329370802
1398.4132142592352 3728.179298076028
1399.2202737131156 3726.8980207961495
1400.027136155073 3549.2599981974768
1400.8338016390353 3743.3289676441686
1401.6402702189134 3667.4560934224537
1402.446541948586 3642.3204209417518
1403.2526168819204 3535.0277249177843
1404.058495072757 3686.5337815804255
1404.8641765749107 3529.1087584953175
1405.6696614421799 3556.0601274930364
1406.4749497283356 3541.104502909635
1407.280041487129 3556.6029759772914
1408.084936772295 3441.516432031459
1408.8896356375335 3541.452729698166
1409.6941381365323 3572.587657798142
1410.498444322955 3504.1314107411345
1411.3025542504402 3501.368336927017
1412.106467972606 3415.2991347622083
1412.9101855430508 3537.261654467432
1413.7137070153458 3429.7714386388006
1414.5170324430437 3372.6920488654273
1415.320161879672 3444.8774889748393
1416.1230953787435 3543.0133862388707
1416.925832993742 3471.2481748268174
1417.7283747781275 3420.741070844265
1418.5307207853439 3383.8642185340314
1419.3328710688093 3465.829722806628
1420.134825681922 3429.4988643191123
1420.9365846780584 3445.3338225691573
1421.7381481105713 3498.5499053619415
1422.539516032788 3423.81666576337
1423.3406884980232 3436.9260548388643
1424.1416655595604 3337.768002847299
1424.942447270665 3373.2537513883603
1425.7430336845828 3397.642019151112
1426.5434248545298 3353.89908522695
1427.3436208337116 3382.650287807858
1428.143621675301 3489.7366335573693
1428.9434274324558 3403.2097535211383
1429.7430381583108 3350.141399816987
1430.5424539059713 3365.4649767696596
1431.3416747285337 3555.615447020027
1432.1407006790632 3350.7583470030295
1432.9395318106053 3350.9962748813314
1433.7381681761835 3447.5970936795843
1434.5366098288014 3402.670976658564
1435.3348568214424 3325.341881471534
1436.1329092070573 3355.1833827637156
1436.9307670385879 3326.1501284374017
1437.7284303689503 3570.0991043000067
1438.5258992510335 3448.230160330421
1439.3231737377118 3453.9502280473257
1440.1202538818306 3426.8530602447136
1440.9171397362225 3452.1765275184603
1441.7138313536925 3387.6922103743213
1442.5103287870243 3340.2369105211305
1443.3066320889775 3421.673051792916
1444.1027413122956 3426.6674848995267
1444.8986565096966 3370.9309266796436
1445.694377733882 3433.464184605497
1446.4899050375207 3395.6401620687816
1447.2852384732687 3334.6061163835475
1448.0803780937622 3366.318041457666
1448.8753239516063 3281.824459614863
1449.6700760993954 3270.6861474205516
1450.464634589689 3213.948165060291
1451.2589994750397 3329.3090904470673
1452.0531708079689 3293.7283058990824
1452.8471486409799 3238.4330828065763
1453.6409330265524 3285.215507129641
1454.4345240171442 3219.9377886705165
1455.2279216651987 3234.3462913367507
1456.0211260231263 3216.3899621581495
1456.8141371433194 3165.441303313755
1457.6069550781594 3179.35525270397
1458.3995798799897 3156.220707781015
1459.1920116011424 3217.8047109587683
1459.98425029393 3154.033413213503
1460.7762960106338 3199.3937739680614
1461.5681488035225 3133.6774914631396
1462.3598087248392 3142.873669612531
1463.1512758268036 3132.8028811309564
1463.942550161617 3120.3413723523345
1464.7336317814625 3068.7692851107868
1465.524520738496 3081.3256244554427
1466.3152170848552 3030.247733910349
1467.1057208726506 3064.4083734265255
1467.8960321539817 2998.567833379705
1468.6861509809169 2937.2183039925894
1469.4760774055085 3047.7804599672572
1470.265811479785 2972.6112060836754
1471.055353255755 2972.2411113668777
1471.844702785409 3031.0056614260548
1472.6338601207044 2933.21148826471
1473.4228253135934 3009.1160740862256
1474.2115984159936 2926.1534671443123
1475.0001794798063 2849.1738923852
1475.7885685569145 2805.211549172617
1476.576765699172 2938.9898817025705
1477.3647709584238 2965.8716451767614
1478.1525843864802 2956.812668667918
1478.9402060351367 2951.160355575343
1479.7276359561693 2875.7213877556833
1480.514874201328 2814.7883884179
1481.3019208223468 2904.2408443879917
1482.0887758709323 2871.993486510496
1482.8754393987747 2812.487322325374
1483.6619114575406 2757.687330429435
1484.4481920988783 2996.9812138850134
1485.2342813744108 2881.982646703288
1486.0201793357446 2843.361109796334
1486.8058860344572 2894.8789635261464
1487.591401522117 2892.565413942123
1488.3767258502594 2868.9424373477273
1489.1618590704056 2727.1317120295776
1489.9468012340494 2757.5007582732983
1490.7315523926754 2853.3057022735825
1491.5161125977356 2862.31520381182
1492.3004819006637 2785.528745307136
1493.084660352877 2862.31230793299
1493.8686480057622 2737.6272533778438
1494.6524449106964 2881.802564080683
1495.4360511190262 2885.8533727993904
1496.219466682087 2845.1177438267714
1497.0026916511779 2958.5032209991027
1497.7857260775945 2759.303578699246
1498.5685700125996 2839.85638963063
1499.3512235074395 2934.8792171661557
1500.133686613337 2887.481157133622
1500.9159593814966 2823.9001544192934
1501.698041863101 2862.272248540058
1502.4799341093094 2773.0048388210244
1503.2616361712662 2761.8233502745215
1504.043148100087 2806.699664058485
1504.8244699468742 2840.9880017773285
1505.6056017626997 3050.1271745263575
1506.3865435986281 2726.4546571378255
1507.1672955056893 2831.807298845904
1507.9478575348967 2776.7973581392503
1508.7282297372512 2810.541601704037
1509.5084121637192 2840.0285350757767
1510.2884048652577 2820.3420148484715
1511.0682078927948 2780.947602748173
1511.8478212972423 2779.4146125689454
1512.6272451294917 2731.413883021086
1513.4064794404076 2814.885804722514
1514.1855242808433 2687.317237137332
1514.9643797016215 2870.174196601198
1515.743045753552 2757.54235943657
1516.5215224874191 2734.9303692823523
1517.2998099539836 2769.0387117994283
1518.077908203999 2846.6227696788
1518.8558172881785 2841.6298941930836
1519.633537257234 2939.8937051488424
1520.4110681618404 2697.317428848947
1521.1884100526604 2883.8462884327973
1521.9655629803365 2782.8311714831602
1522.7425269954856 2910.4397361847236
1523.5193021487103 2746.8081518030663
1524.2958884905856 2744.616672775753
1525.0722860716687 2792.0263083872474
1525.848494942502 2821.052264634426
1526.624515153595 2737.092470127541
1527.4003467554485 2843.45963843602
1528.175989798534 2773.493018540131
1528.9514443333064 2772.9314082795795
1529.726710410203 2842.5230410494146
1530.5017880796331 2752.614185771777
1531.276677391992 2882.0056244248094
1532.0513783976457 2755.5007258770393
1532.825891146953 2796.0447525258082
1533.6002156902414 2914.39828733141
1534.3743520778207 2830.784536509668
1535.1483003599806 2817.5762458712206
1535.9220605869923 2631.19096091742
1536.6956328091019 2841.527343597135
1537.4690170765407 2789.6348567644613
1538.242213439511 2837.0339766969287
1539.015221948208 2918.7645886813693
1539.78804265279 2783.342933229885
1540.560675603405 2779.459893401861
1541.3331208501804 2807.818939795327
1542.1053784432224 2827.35182060544
1542.8774484326168 2834.924401999152
1543.649330868422 2816.2132281697805
1544.4210258006842 2808.6690064602094
1545.1925332794308 2820.5348725039858
1545.9638533546604 2839.44863046894
1546.7349860763552 2761.703351963634
1547.5059314944829 2878.6236504218427
1548.27668965898 2758.5656394561856
1549.0472606197673 2953.6728558052228
1549.817644426752 2783.3569668603786
1550.5878411298072 2808.6390992536335
1551.3578507787988 2805.6116783124417
1552.1276734235635 2825.8305016611894
1552.8973091139233 2801.3596509990193
1553.6667578996767 2829.1735078691117
1554.436019830604 2947.892116260446
1555.20509495646 2829.2945885852523
1555.9739833269869 2755.873111748557
1556.7426849919011 2700.5031903014024
1557.511200000903 2968.3417734589707
1558.2795284036674 2895.542395494636
1559.0476702498509 2890.357886313449
1559.8156255890954 2959.3662762681165
1560.5833944710157 2832.4472548994945
1561.3509769452048 2841.4619152694263
1562.1183730612447 2822.1339714809396
1562.8855828686865 2792.8455949793965
1563.6526064170703 2859.2437162037577
1564.4194437559127 2936.150975560545
1565.1860949347047 2858.2377112798576
1565.9525600029283 2893.2399953315717
1566.7188390100328 2793.9462243050966
1567.4849320054564 2858.198245733023
1568.250839038612 2837.8169874925547
1569.0165601588997 2829.402150302524
1569.7820954156887 2836.8379218574228
1570.5474448583373 2817.149662949224
1571.31260853618 2830.114220553661
1572.0775864985299 2868.155617591318
1572.8423787946813 2847.7142655815546
1573.6069854739108 2803.5436031979257
1574.371406585471 2920.0655772079144
1575.1356421785986 2865.4102483422835
1575.899692302506 2886.5500477802634
1576.6635570063845 2891.232473589763
1577.4272363394157 2802.920717188187
1578.190730350747 2886.403606910462
1578.9540390895163 2861.703085964836
1579.7171626048384 2719.1472250544316
1580.480100945806 2801.26416113323
1581.2428541614918 2814.8187639821654
1582.0054223009538 2718.4162763916147
1582.767805413223 2893.113163169547
1583.5300035473156 2680.276393823099
1584.292016752228 2798.4247219584477
1585.0538450769309 2756.933373474242
1585.8154885703807 2784.731400298794
1586.5769472815136 2821.7326088711316
1587.3382212592405 2888.978509383753
1588.099310552463 2854.716045213045
1588.8602152100484 2678.053004032745
1589.6209352808564 2829.5205332768655
1590.3814708137234 2802.476207153941
1591.14182185746 2693.8533097613863
1591.9019884608679 2894.977135491907
1592.6619706727215 2723.680374793431
1593.4217685417734 2840.044033829555
1594.1813821167616 2893.23408789245
1594.9408114464022 2566.511064576982
1595.7000565793933 2849.91368374837
1596.459117564409 2698.438665443454
1597.2179944501113 2690.2087264602205
1597.9766872851324 2787.1981502981307
1598.735196118092 2724.9563391424417
1599.4935209975883 2779.990299110752
1600.2516619721973 2892.267772913171
1601.0096190904787 2778.66002845417
1601.7673924009723 2886.0072643059902
1602.524981952196 2718.4175407931293
1603.2823877926476 2719.380577560585
1604.0396099708087 2767.4596360585138
1604.7966485351371 2698.890677196785
1605.5535035340745 2730.7383774156337
1606.3101750160404 2589.7692583991466
1607.0666630294363 2778.248022439076
1607.822967622642 2610.2810599464365
1608.5790888440224 2634.4716771387675
1609.3350267419137 2697.3455396799304
1610.0907813646445 2791.5607248973397
1610.8463527605145 2766.586525947077
1611.601740977805 2671.181089531614
1612.356946064785 2762.4298247362644
1613.1119680696902 2580.463448106818
1613.8668070407512 2685.1551193705136
1614.6214630261748 2713.5573141584528
1615.375936074137 2653.4914106595097
1616.1302262328118 2720.7770327820717
1616.8843335503425 2680.016218493326
1617.638258074854 2576.7290617746917
1618.391999854457 2583.4063773839976
1619.1455589372363 2663.296736412457
1619.8989353712623 2719.859503625067
1620.65212920458 2535.525459739706
1621.4051404852235 2618.899426392286
1622.1579692611976 2583.688509321284
1622.9106155804966 2533.967349068863
1623.663079491087 2666.374714619879
1624.4153610409248 2573.2275545748994
1625.1674602779385 2575.2634284003752
1625.9193772500403 2569.749761729244
1626.6711120051277 2618.1101201292026
1627.4226645910676 2600.547241631265
1628.174035055721 2502.0111545354043
1628.9252234469168 2526.4890470520945
1629.676229812474 2561.0318369432707
1630.4270542001905 2894.19100411103
1631.1776966578382 2606.5315675339543
1631.9281572331747 2665.1971745145847
1632.678435973945 2545.3101003857732
1633.4285329278573 2640.367424106787
1634.1784481426203 2589.246237004684
1634.9281816659113 2683.863210447044
1635.677733545388 2680.4064486878333
1636.4271038286934 2507.7059475074047
1637.176292563452 2566.3086475735813
1637.9252997972635 2668.8685694149162
1638.674125577716 2759.4521562098753
1639.4227699523672 2707.286722028111
1640.171232968767 2533.843671858164
1640.9195146744423 2692.865725830816
1641.6676151168977 2797.2245740253047
1642.4155343436178 2582.653366381626
1643.1632724020765 2601.4009816025896
1643.9108293397167 2702.5227844500982
1644.658205203974 2616.0675530845033
1645.4054000422566 2767.7588533980897
1646.1524139019566 2677.2849311270106
1646.8992468304423 2723.8851299965177
1647.6458988750728 2682.1259964229744
1648.3923700831765 2775.7306979202167
1649.1386605020743 2741.77080975157
1649.8847701790564 2690.714504479748
1650.6306991614038 2719.3877122922013
1651.3764474963682 2683.2881834073287
1652.1220152311944 2512.2747897184613
1652.867402413096 2809.1089658409915
1653.6126090892776 2514.670537378991
1654.3576353069184 2803.203476302454
1655.1024811131829 2673.815140541308
1655.8471465552066 2803.1613096384403
1656.5916316801213 2755.257917986836
1657.3359365350298 2566.5357105494236
1658.0800611670165 2577.2777201988433
1658.824005623148 2637.8687791635284
1659.5677699504722 2677.047835325883
1660.3113541960192 2670.1467033014096
1661.054758406799 2689.9124634587265
1661.7979826297997 2584.5478951758337
1662.5410269119966 2582.2770484179623
1663.283891300338 2720.1087436811476
1664.0265758417645 2662.6905138019106
1664.7690805831826 2571.072970994974
1665.5114055714948 2703.258711356707
1666.2535508535748 2542.4786168905393
1666.9955164762814 2491.015449579575
1667.7373024864555 2528.605074378499
1668.478908930916 2580.24312277258
1669.220335856462 2351.2524213041365
1669.9615833098778 2558.165412761848
1670.7026513379296 2423.251164714738
1671.44353998736 2520.8577854772907
1672.1842493048916 2458.488901356817
1672.9247793372379 2416.149616421702
1673.6651301310812 2409.6206664248703
1674.4053017330934 2397.5864303253516
1675.1452941899242 2510.0245839692484
1675.885107548207 2305.1958715242354
1676.6247418545518 2351.2592621708354
1677.3641971555535 2503.415023800199
1678.1034734977893 2383.088803859157
1678.8425709278108 2456.233628748076
1679.5814894921605 2374.1014605350992
1680.320229237359 2204.677737376101
1681.0587902098978 2358.72338161399
1681.7971724562685 2348.000777611668
1682.5353760229264 2329.285008975167
1683.2734009563173 2227.623929495144
1684.0112473028657 2264.349363969821
1684.7489151089794 2335.093854394897
1685.4864044210462 2237.6870057748692
1686.2237152854377 2349.1562364636675
1686.960847748498 2209.166569944116
1687.6978018565642 2214.5991511366637
1688.434577655944 2240.4380905960197
1689.1711751929379 2296.8656192634744
1689.9075945138156 2259.0598332345317
1690.6438356648396 2165.223451763558
1691.3798986922448 2108.2519024019975
1692.1157836422499 2164.638345700577
1692.851490561059 2182.3612010730008
1693.587019494853 2106.6271978980226
1694.3223704897991 2177.2531417160253
1695.0575435920364 2163.155357091003
1695.792538847696 2181.0614108626096
1696.527356302886 2103.9471231880816
1697.2619960036936 2080.822325487777
1697.9964579961907 2152.7704547827125
1698.730742326432 1826.0839595170116
1699.4648490404488 1894.4024406805988
1700.1987781842563 1990.6676466331623
1700.9325298038548 2129.5917100835695
1701.6661039452174 2020.128223665699
1702.3995006543082 2130.727432467185
1703.1327199770658 2137.290969640148
1703.865761959416 2122.6589474765296
1704.598626647261 1999.2816021829262
1705.3313140864866 2018.5918193895413
1706.0638243229587 2116.8231108289533
1706.7961574025303 2168.080100233611
1707.528313371029 2062.2359840357512
1708.260292274268 1833.5405617552558
1708.9920941580403 2021.192494029101
1709.7237190681226 1961.2137565669923
1710.4551670502697 2029.7869846066951
1711.18643815022 1821.4081513132162
1711.9175324136959 2023.2072099952518
1712.6484498863938 1874.64095425169
1713.379190614005 1843.9377552601727
1714.109754642188 2220.109350816936
1714.8401420165883 1942.5300959657627
1715.570352782839 1965.7555040754166
1716.3003869865497 2076.917254686609
1717.0302446733076 1912.712467746012
1717.7599258886876 1862.2538301243756
1718.4894306782444 1887.7792885047097
1719.2187590875183 1933.476133783719
1719.9479111620203 1923.9095104104035
1720.6768869472544 1901.6022145244165
1721.4056864887025 1875.5276417171851
1722.1343098318284 1949.0947131159348
1722.8627570220742 1916.287886049146
1723.591028104871 1848.870984077877
1724.3191231256242 1724.1804129933673
1725.0470421297232 1808.224494154685
1725.7747851625427 1799.7114593934825
1726.5023522694337 1858.8028088162519
1727.2297434957363 1910.2969187368176
1727.9569588867635 1593.1905936589792
1728.6839984878152 1885.812817914845
1729.4108623441734 1704.2505868052135
1730.1375505011038 1870.680724178536
1730.8640630038426 1810.9251079395478
1731.5903998976264 1765.6968537372134
1732.316561227657 1818.2656984014375
1733.0425470391274 1890.0733625764017
1733.7683573772065 1890.0616537706173
1734.4939922870508 1801.1757112549615
1735.2194518137949 1825.3573919924813
1735.9447360025606 1876.9081103137105
1736.669844898439 1756.9183749555443
1737.3947785465189 1785.339055102228
1738.1195369918605 1733.465915490137
1738.8441202795093 1624.0381974117438
1739.5685284544943 1790.4361350425283
1740.292761561821 1907.969754842324
1741.0168196464838 1803.4628372659922
1741.7407027534518 1837.495222085688
1742.464410927687 1805.635158223661
1743.187944214118 1774.5540842640457
1743.9113026576688 1755.043319874418
1744.634486303241 1816.2981207716962
1745.3574951957125 1850.09235914205
1746.0803293799509 1672.400705501679
1746.8029889008048 1708.6497739784027
1747.5254738031017 1825.235987811236
1748.2477841316504 1647.970798659076
1748.969919931249 1724.58288631214
1749.6918812466665 1588.6282748790136
1750.4136681226646 1850.3877420766905
1751.1352806039777 1782.5216871899036
1751.856718735331 1799.1402151228351
1752.5779825614281 1832.1722497085025
1753.2990721269507 1763.4745281073076
1754.0199874765676 1681.4056382355134
1754.7407286549314 1681.7349673404522
1755.4612957066693 1826.3118920442234
1756.1816886763954 1708.615993410461
1756.9019076087097 1790.6093768850692
1757.6219525481865 1775.5274100883366
1758.3418235393856 1741.4298419546983
1759.061520626854 1802.6793018201374
1759.7810438551096 1707.9478250757566
1760.5003932686614 1684.4159543235733
1761.2195689119999 1706.3537183839785
1761.938570829594 1654.619016916467
1762.657399065898 1711.2656850175285
1763.376053665348 1724.8911096492357
1764.0945346723602 1689.148717357633
1764.812842131334 1650.3352296665446
1765.5309760866512 1671.4107388548887
1766.2489365826787 1813.9840168574888
1766.9667236637597 1815.7111085460608
1767.684337374223 1575.1128922674634
1768.401777758383 1501.6572409933904
1769.1190448605284 1663.112284417756
1769.836138724937 1651.4910289337372
1770.5530593958665 1721.565231559832
1771.2698069175603 1647.3003583903726
1771.9863813342326 1702.396588920102
1772.702782690094 1688.3058739332814
1773.4190110293293 1686.0222315799867
1774.1350663961111 1706.7076778475173
1774.8509488345844 1699.3519461378996
1775.5666583888924 1726.1898612532812
1776.2821951031437 1819.2996603807599
1776.9975590214362 1651.0286786703953
1777.7127501878585 1825.8136997571341
1778.4277686464684 1676.6122663235328
1779.1426144413108 1623.4474764432894
1779.8572876164162 1700.232524222732
1780.571788215797 1729.8951204252414
1781.2861162834415 1766.124242033263
1782.0002718633277 1726.0544424677144
1782.7142549994132 1611.0154068174552
1783.4280657356376 1729.4196260124922
1784.141704115922 1622.068414059309
1784.855170184177 1625.8299676162558
1785.5684639842839 1592.3242788751093
1786.2815855601148 1600.7468837638664
1786.9945349555237 1656.9076240260001
1787.707312214343 1663.0079196924253
1788.4199173803918 1633.5732361312228
1789.132350497468 1583.952044520971
1789.8446116093583 1489.7229933573421
1790.556700759822 1492.1288706796445
1791.2686179926077 1494.600695900198
1791.9803633514493 1610.3354583202488
1792.6919368800554 1560.760252254107
1793.4033386221236 1641.6701699653454
1794.1145686213295 1614.014682764989
1794.8256269213307 1719.6321690247307
1795.536513565774 1632.1628343057714
1796.247228598284 1560.0822276056626
1796.9577720624693 1585.503942744558
1797.6681440019165 1613.420668200521
1798.3783444602013 1601.0474190555688
1799.0883734808776 1595.1682842590951
1799.7982311074884 1640.2722277139624
1800.5079173835475 1522.9059375919082
1801.2174323525633 1617.3446197698163
1801.9267760580187 1636.6803523441265
1802.635948543386 1466.7176568603818
1803.3449498521113 1546.2164515611296
1804.0537800276325 1636.5395521846553
1804.7624391133668 1593.6670353910924
1805.47092715271 1551.586641638617
1806.1792441890484 1675.2927803923644
1806.8873902657433 1469.0344986063687
1807.5953654261448 1622.8198863564319
1808.3031697135812 1612.3564923032052
1809.0108031713662 1564.4620117943255
1809.71826584279 1572.2048524526595
1810.425557771141 1557.4226780917431
1811.1326789996747 1671.6510945055427
1811.839629571632 1731.7459262290954
1812.5464095302468 1590.0166189289407
1813.2530189187182 1676.6647229923485
1813.959457780249 1460.3835416610573
1814.6657261580076 1634.6543926495242
1815.371824095153 1573.5282506910762
1816.0777516348262 1501.5196831844728
1816.78350882015 1535.6670904419343
1817.4890956942272 1470.3637656084243
1818.1945123001533 1526.3930255375983
1818.8997586809928 1569.1142534245216
1819.6048348798067 1606.0230824155635
1820.3097409396287 1390.6094061645204
1821.0144769034796 1653.840745623842
1821.7190428143622 1463.273313164946
1822.423438715261 1687.9896220355372
1823.1276646491478 1552.525805665909
1823.8317206589727 1582.377638023771
1824.5356067876692 1568.4952243399857
1825.2393230781581 1378.9256026652058
1825.942869573335 1540.611726917168
1826.646246316086 1615.770067651024
1827.3494533492758 1554.7415974559078
1828.052490715756 1545.862789748588
1828.7553584583547 1612.7396908710311
1829.458056619891 1513.0612913256587
1830.1605852431585 1519.4549760588357
1830.8629443709433 1419.800761122799
1831.5651340460063 1523.1940506660635
1832.2671543110919 1550.055429076495
1832.9690052089318 1458.115976296855
1833.6706867822395 1665.7791120523034
1834.3721990737104 1686.3889074008844
1835.0735421260233 1539.8909768212338
1835.774715981841 1661.6044440835744
1836.4757206838058 1448.4852197064859
1837.1765562745459 1492.2442465072277
1837.8772227966747 1432.8929785269263
1838.5777202927839 1685.46362793144
1839.2780488054523 1505.0028709468247
1839.9782083772352 1567.8141329431573
1840.6781990506806 1614.681400636839
1841.378020868313 1499.0334766105907
1842.0776738726418 1480.7500087986627
1842.777158106157 1646.6688654504312
1843.4764736113375 1472.551243350658
1844.1756204306403 1526.7177903144652
1844.8745986065078 1532.628839591831
1845.5734081813607 1353.432905437266
1846.2720491976124 1446.5171547741468
1846.970521697649 1334.9232578058147
1847.6688257238511 1459.2705542351464
1848.3669613185684 1563.4087098811974
1849.0649285241452 1511.1249919955221
1849.7627273829057 1459.8751353500545
1850.460357937156 1563.1402574098913
1851.1578202291857 1323.7214727673727
1851.8551143012664 1544.5739542993347
1852.5522401956569 1594.321306672669
1853.2491979545957 1483.389931202551
1853.9459876203055 1429.5457413927747
1854.6426092349902 1411.2291844415693
1855.3390628408451 1457.7455214813776
1856.0353484800362 1495.8339888947162
1856.7314661947203 1512.4896715026598
1857.4274160270397 1384.9206010541257
1858.123198019115 1398.9890441716766
1858.8188122130487 1512.6034004322178
1859.5142586509319 1545.838419841166
1860.209537374838 1540.1088218535535
1860.9046484268183 1427.65654728705
1861.599591848917 1517.2828671534694
1862.294367683151 1373.3318947376392
1862.988975971528 1483.0035059209629
1863.6834167560355 1445.7847525166685
1864.3776900786452 1507.752036555537
1865.0717959813119 1630.7923100056792
1865.7657345059724 1536.9345782250653
1866.4595056945564 1521.503278150881
1867.1531095889586 1437.9912323114008
1867.846546231076 1572.0001263681363
1868.5398156627743 1484.1189910100736
1869.2329179259123 1534.4199613868464
1869.9258530623283 1533.989224569644
1870.618621113843 1496.6960754051365
1871.3112221222636 1411.9049009569685
1872.0036561293764 1453.4083793028735
1872.695923176956 1461.5417489680162
1873.3880233067594 1492.5428249195097
1874.0799565605212 1381.8717538190963
1874.7717229799673 1541.5068385208651
1875.4633226068036 1512.7467403213882
1876.1547554827175 1543.0881641257913
1876.8460216493859 1427.7783221693896
1877.5371211484617 1535.8821008503462
1878.2280540215852 1544.198946721545
1878.9188203103804 1428.5747546946263
1879.6094200564548 1476.6469078278283
1880.299853301396 1357.2071537125526
1880.9901200867826 1517.9431271438702
1881.6802204541673 1480.8962043608935
1882.3701544450942 1475.7594267993522
1883.059922101087 1623.5370445560989
1883.7495234636517 1541.9190472825067
1884.4389585742792 1388.0362479071177
1885.1282274744517 1553.8104900582587
1885.8173302056166 1433.5824764046783
1886.506266809225 1439.0009122552449
1887.195037326701 1464.9787604876244
1887.8836417994517 1495.485563317089
1888.5720802688702 1556.470051548167
1889.260352776333 1335.727402731522
1889.9484593632042 1420.9295391684316
1890.63640007082 1352.1545348727193
1891.3241749405151 1379.2617925577947
1892.0117840135954 1454.0082118246487
1892.6992273313572 1336.633773208932
1893.3865049350788 1400.6795014802572
1894.0736168660223 1516.0933496681052
1894.7605631654333 1366.8723663276414
1895.4473438745408 1477.811950116742
1896.133959034556 1398.546416752144
1896.820408686679 1306.4772271894385
1897.506692872088 1431.8541839545583
1898.192811631945 1467.0069764411296
1898.8787650073991 1376.5656469379414
1899.5645530395832 1587.2662491589463
1900.2501757696118 1532.2160092232875
1900.9356332385796 1261.6143096415367
1901.620925487574 1440.3355378148285
1902.3060525576602 1518.7605992854524
1902.9910144898859 1485.724830882987
1903.6758113252872 1345.4266242326953
1904.3604431048789 1547.1105845718178
1905.0449098696663 1312.8221819318621
1905.7292116606295 1437.422797040989
1906.4133485187394 1339.4754309514296
1907.0973204849488 1231.232957403137
1907.7811276001976 1465.9155870596483
1908.4647699053967 1369.4108112627723
1909.1482474414588 1433.1324081113285
1909.8315602492694 1166.4674959968957
1910.5147083696957 1376.0560144964588
1911.1976918436012 1601.5628582178242
1911.880510711815 1377.3755193008237
1912.5631650151681 1335.1225928270928
1913.2456547944657 1548.963684168137
1913.927980090495 1432.9380215153858
1914.6101409440362 1370.2754421119805
1915.2921373958416 1271.519207564299
1915.9739694866603 1484.096789314429
1916.655637257214 1541.631637864928
1917.3371407482136 1409.5154290331234
1918.0184800003572 1437.4372523210927
1918.6996550543154 1348.565577138917
1919.3806659507554 1459.872715772526
1920.0615127303208 1574.0344245120718
1920.7421954336423 1401.2781675203341
1921.4227141013343 1494.0347208067847
1922.103068773993 1390.6937521889283
1922.783259492202 1440.7475020287989
1923.4632862965227 1299.1708111292085
1924.1431492275078 1357.7263639626258
1924.8228483256917 1282.224286476314
1925.5023836315922 1346.5769802704492
1926.1817551857057 1300.0092161924817
1926.8609630285227 1385.1320794374556
1927.5400072005123 1472.3242712554838
1928.218887742125 1242.5226257936145
1928.8976046938005 1261.523249611946
1929.5761580959588 1402.5408863527541
1930.2545479890086 1404.091391882765
1930.9327744133352 1341.8110528047077
1931.6108374093164 1373.5065666765697
1932.2887370173066 1401.5099767255824
1932.9664732776473 1422.4729141128048
1933.6440462306673 1443.4318561059945
1934.3214559166754 1312.6791275202525
1934.9987023759659 1252.5669789593348
1935.675785648813 1253.8712166443916
1936.3527057754836 1224.8349942079926
1937.029462796223 1422.5981077209601
1937.70605675126 1461.187145595127
1938.3824876808085 1411.4340873542403
1939.058755625072 1212.09069515317
1939.7348606242267 1433.7088877844117
1940.4108027184448 1413.4086369623553
1941.0865819478713 1483.8398430944924
1941.7621983526478 1304.7313177815297
1942.4376519728921 1285.1469032848506
1943.1129428487038 1215.6359806944652
1943.7880710201734 1258.2511541007311
1944.4630365273733 1457.5550534099307
1945.1378394103576 1242.6382803581046
1945.8124797091714 1175.5261095939275
1946.4869574638324 1108.2395843294248
1947.161272714353 1225.0592738833634
1947.8354255007234 1412.5589643599242
1948.5094158629272 1372.2775232927977
1949.1832438409183 1324.1731206532743
1949.8569094746435 1240.1532104129221
1950.530412804037 1277.1194292213984
1951.2037538690092 1444.1258085639809
1951.8769327094578 1322.0989003351913
1952.5499493652678 1387.357636605185
1953.222803876306 1249.4239186548548
1953.895496282421 1208.5348897874233
1954.5680266234522 1167.521472804144
1955.2403949392155 1290.1255239200843
1955.9126012695142 1289.978783724598
1956.5846456541403 1346.4174123236091
1957.2565281328643 1255.5046546233048
1957.9282487454457 1278.8304406853447
1958.5998075316202 1448.911736792597
1959.27120453112 1382.4982559878285
1959.9424397836501 1462.923046919805
1960.613513328908 1278.8655163892622
1961.2844252065697 1371.1151229340226
1961.9551754563017 1295.60703869833
1962.6257641177453 1195.3706152559648
1963.29619123054 1403.6118435937337
1963.966456834296 1232.357678952965
1964.6365609686181 1135.6494002134723
1965.306503673086 1403.169102251783
1965.976284987275 1330.018629901903
1966.645904950734 1277.4571234200632
1967.315363603002 1221.840967304794
1967.9846609836077 1279.5906270467412
1968.6537971320486 1418.2655584067768
1969.3227720878222 1332.8327260076153
1969.9915858904042 1186.080602863602
1970.660238579252 1371.245183022827
1971.3287301938108 1351.0312576945803
1971.997060773514 1150.9416469230061
1972.665230357772 1336.6941929519112
1973.3332389859843 1214.875776853582
1974.0010866975335 1301.10437871745
1974.6687735317864 1387.542614099239
1975.3362995280932 1446.3319439980573
1976.003664725793 1316.3685325915237
1976.6708691642052 1321.840439490065
1977.3379128826364 1327.2141700559737
1978.004795920373 1210.538855409442
1978.6715183166925 1202.7636429494257
1979.3380801108524 1194.975887600804
1980.0044813420973 1378.2140907031796
1980.6707220496555 1269.3324083281695
1981.3368022727373 1198.3501880280999
1982.0027220505417 1341.2711457274381
1982.66848142225 1139.3715672245194
1983.3340804270283 1164.4995693285523
1983.999519104027 1267.913452013814
1984.6647974923835 1495.9817382888505
1985.329915631215 1280.5164185236822
1985.99487355963 1296.844857382854
1986.6596713167146 1285.9751407013748
1987.3243089415428 1434.1810285965075
1987.9887864731754 1344.6839457890896
1988.6531039506553 1221.7173723114136
1989.3172614130071 1369.1924770061396
1989.9812588992481 1398.6861986535928
1990.645096448372 1365.533884464962
1991.3087740993633 1290.8298323951879
1991.9722918911848 1177.493536879888
1992.635649862792 1221.1993539863408
1993.2988480531185 1280.2434757952055
1993.9618865010852 1335.3796948626214
1994.6247652455968 1259.4335930715847
1995.287484325545 1124.3140119196805
1995.9500437798033 1302.0063714337746
1996.6124436472292 1211.6569247969394
1997.2746839666706 1208.0030654088482
1997.936764776954 1401.8678764894926
1998.598686116895 1363.5931140691566
1999.2604480252903 1371.3572279839395
1999.9220505409212 1246.6012880501312
2000.5834937025593 1121.4973438292948
2001.2447775489582 1184.3931830356491
2001.9059021188514 1209.202664619329
2002.5668674509616 1104.040960972255
2003.2276735839987 1253.475987182438
2003.8883205566508 1177.9565690293587
2004.5488084075987 1267.6152336477737
2005.2091371755014 1217.8203073283157
2005.8693068990033 1355.2922824533034
2006.5293176167397 1271.4690757120884
2007.1891693673224 1213.529966137972
2007.848862189354 1092.3029727446233
2008.5083961214223 1115.2894558806743
2009.1677712020955 1187.2789962650463
2009.8269874699254 1140.834119129864
2010.4860449634598 1179.8208030445126
2011.1449437212177 1199.146764669582
2011.8036837817108 1219.6353447782408
2012.4622651834325 1249.6662067863952
2013.1206879648653 1374.1879641930923
2013.7789521644736 1260.7828752284317
2014.4370578207036 1159.6585742756765
2015.0950049719922 1299.380615192629
2015.7527936567585 1136.7870851804814
2016.4104239134067 1375.0530699358253
2017.067895780323 1290.2824974288208
2017.725209295886 1225.3592642765657
2018.3823644984514 1380.8545185155212
2019.0393614263648 1412.4771514123354
2019.6962001179545 1304.3040295308479
2020.3528806115355 1195.8347448871577
2021.0094029454067 1002.2926203588261
2021.6657671578487 1174.5449814283165
2022.321973287133 1314.1651424739002
2022.9780213715148 1248.6097718164592
2023.6339114492293 1340.6085327046412
2024.2896435585026 1234.2190931386301
2024.9452177375442 1112.4853082325747
2025.600634024544 1375.209581038763
2026.2558924576842 1312.7712050078248
2026.9109930751292 1266.360028601607
2027.565935915025 1046.4307255945876
2028.2207210155066 1331.4950390120962
2028.8753484146964 1316.3525533614343
2029.529818150695 1251.0142053405684
2030.1841302615903 1186.4738460698325
2030.8382847854573 1158.7717037698374
2031.4922817603601 1009.4447198973357
2032.1461212243357 1196.9439057543882
2032.7998032154192 1118.286335757676
2033.4533277716218 1363.1379773609176
2034.1066949309443 1240.2481000314838
2034.7599047313688 1185.2082814581527
2035.4129572108704 1384.2228797384337
2036.0658524074006 1504.2104774521772
2036.7185903589016 1376.4072420108564
2037.3711711032956 1221.9918041908063
2038.023594678496 1089.4883077435607
2038.675861122394 1039.730126246876
2039.3279704728757 1207.9250007398036
2039.9799227678031 1018.8401562602128
2040.6317180450278 1135.4582035316976
2041.2833563423865 1182.4472744882128
2041.9348376977014 1230.657895453212
2042.5861621487784 1075.210115849395
2043.2373297334088 1109.9039765422876
2043.8883404893695 1211.5258019447888
2044.5391944544208 1307.6563257242176
2045.1898916663158 1105.3634259393446
2045.8404321627804 1199.0949671369704
2046.4908159815368 1234.6424615544768
2047.1410431602853 1182.7584909969012
2047.7911137367173 1150.909212797686
2048.441027748504 1245.6867606011317
2049.090785233302 1118.3652262156222
2049.7403862287592 1167.130174606302
2050.389830772503 1356.3188747035795
2051.0391189021466 1097.4477630048536
2051.688250655294 1094.6617808704939
2052.337226069527 1208.9206372282538
2052.986045182417 1225.500873879809
2053.634708031521 1149.840822628304
2054.283214654375 1250.001633897116
2054.931565088511 980.2954033820473
2055.579759371436 1124.5722349258835
2056.2277975406523 1193.313570160145
2056.8756796336384 1256.399566848068
2057.5234056878617 1091.9270862376989
2058.1709757407752 1193.209380845186
2058.8183898298194 1074.6716156387884
2059.465647992416 1141.7435094746115
2060.1127502659747 1013.8671431938532
2060.759696687888 1195.279024720047
2061.4064872955405 1352.9424549158648
2062.053122126292 1200.1308648034858
2062.699601217497 1126.6949832111475
2063.345924606485 1234.7396103950418
2063.992092330587 1275.9933477518455
2064.638104427102 1219.736167467528
2065.283960933324 1170.2775377137968
2065.92966188653 1251.408171115776
2066.5752073239855 1128.091731195711
2067.2205972829397 1180.8730732212675
2067.86583180062 1201.8655697133513
2068.5109109142522 1213.788970328937
2069.15583466104 1081.1717598391867
2069.8006030781708 1286.6648759127258
2070.445216202821 1156.2326771668247
2071.089674072153 1246.806453338293
2071.7339767233116 1229.1262332976648
2072.3781241934303 1165.8029644785693
2073.0221165196253 1286.2205711655606
2073.6659537390024 1275.4667093705461
2074.3096358886505 1139.0535929549756
2074.953163005637 988.8076107910067
2075.596535127028 1268.5820453826907
2076.2397522898664 1184.6776208558942
2076.882814531182 1175.1309762015921
2077.5257218879924 1216.006409397644
2078.1684743973 1102.076309876088
2078.8110720960885 1070.623308124083
2079.453515021336 1257.3086517249835
2080.095803209997 1300.5423440758916
2080.7379366990135 1031.0629654727754
2081.37991552532 1142.0184124309105
2082.0217397258275 1190.9251660789218
2082.6634093374414 1079.8450897361106
2083.3049243970418 1062.0098959428653
2083.9462849415067 1113.3938326531506
2084.587491007689 1176.4702770483168
2085.2285426324324 1305.5382190154728
2085.869439852564 1261.5676360914667
2086.510182704902 1233.1734495983428
2087.1507712262483 1204.7343451186375
2087.791205453381 1030.8331900899034
2088.4314854230743 1031.6918024080346
2089.0716111720867 1106.8025267753371
2089.7115827371617 1003.1978294596718
2090.351400155023 1061.6005485073879
2090.991063462385 1120.1610537478605
2091.6305726959527 1199.2760394234865
2092.2699278924047 1312.4147758883037
2092.9091290884153 1010.3927032373116
2093.548176320641 1165.7007199146503
2094.187069625721 1138.9100571890947
2094.8258090402887 1075.7647446835665
2095.464394600951 1105.0783984512748
2096.102826344313 1181.395027131975
2096.741104306955 1072.2850258602175
2097.379228525453 962.9343930658376
2098.017199036358 1125.298740063823
2098.6550158762147 1168.9702077855932
2099.2926790815527 1066.4165943283933
2099.9301886888825 1280.1789678068546
2100.5675447347076 1276.813194495774
2101.2047472555114 1434.4142044881798
2101.841796287761 1202.5037148094002
2102.47869186792 1157.526218439239
2103.1154340324265 1189.6522927842984
2103.752022817709 1176.6829231429433
2104.388458260184 1170.8340056207448
2105.024740396251 1241.2358054006609
2105.660869262292 1087.5727012604075
2106.296844894685 1207.0336893192223
2106.93266732978 1284.9570666055745
2107.5683366039284 1074.6328543537074
2108.2038527534532 1078.3408514845864
2108.8392158146726 1340.0565873926396
2109.4744258238843 1284.0804093343734
2110.1094828173755 1307.975550094726
2110.744386831422 1331.954183465331
2111.3791379022787 1221.5385682096444
2112.01373606619 1276.295924495685
2112.648181359389 1073.615502422659
2113.28247381809 1313.5552316238266
2113.916613478492 1118.8135660861035
2114.550600376786 1245.2067423491974
2115.1844345491445 1323.2192943920118
2115.818116031729 1240.7351062067976
2116.451644860679 1159.2170399221297
2117.085021072133 1048.211408040454
2117.718244702204 995.5098816741865
2118.3513157869984 1210.1389593656536
2118.984234362604 1152.4914182106577
2119.617000465092 1111.8301189282133
2120.249614130529 1177.5964223742455
2120.8820753949585 1199.3570929861971
2121.5143842944162 1211.382159960032
2122.14654086492 1230.8733710009824
2122.7785451424734 1157.1450222910364
2123.4103971630702 956.705815982715
2124.042096962681 980.6532907487544
2124.6736445772767 1004.7500690062204
2125.305040042802 1002.4134853040034
2125.936283395191 1186.7743113883996
2126.567374670365 1037.2834039419233
2127.198313904233 972.8513346352001
2127.8291011326855 1202.2635544288273
2128.4597363916037 1137.613700718987
2129.0902197168507 1224.395031475216
2129.720551144279 1067.3331652921622
2130.3507307097225 1231.2005467460142
2130.980758449008 1174.67810319911
2131.6106343979427 1115.5296957438582
2132.2403585923203 1124.860238026932
2132.8699310679276 1182.8299265736184
2133.499351860526 1069.783010384389
2134.1286210058715 1223.9504011421582
2134.7577385397053 1177.0864149008298
2135.3867044977487 983.9169140445683
2136.0155189157176 1164.7140546522264
2136.644181829308 1085.3775091498749
2137.2726932742025 1003.4868372779474
2137.901053286074 1219.9968205199984
2138.5292619005777 1149.485992654296
2139.1573191533535 1160.5450200005673
2139.7852250800315 1397.979916785386
2140.4129797162295 1244.4668495288106
2141.0405830975433 1088.1688598057158
2141.6680352595613 1200.165676569207
2142.2953362378576 1030.933132269933
2142.9224860679915 981.4023677076084
2143.549484785508 1093.647978167964
2144.1763324259373 1295.9801639486195
2144.803029024799 1186.973113468754
2145.429574617594 1053.6109294576195
2146.0559692398165 965.6386065840567
2146.682212926942 1174.6677114615106
2147.308305714432 1073.7714387068395
2147.9342476377333 1062.9798418561847
2148.5600387322847 988.5212840099855
2149.185679033506 1031.138385106461
2149.8111685768017 1152.870483649409
2150.4365073975678 1190.7218587294196
2151.061695531187 1291.2984768739366
2151.686733013021 1209.507274202871
2152.311619878423 1151.9292405937535
2152.9363561627342 1105.7679488438928
2153.560941901278 1045.3742260904532
2154.1853771293663 1033.5099254937454
2154.809661882293 1243.5625529448726
2155.433796195348 1173.7469033520304
2156.0577801037944 1160.2455142661045
2156.681613642895 1010.3281913644742
2157.3052968478896 1078.8805785793584
2157.928829754006 1041.9631087949388
2158.552212396462 1138.918910332241
2159.1754448104566 981.0571878650226
2159.7985270311783 937.8061543140564
2160.4214590938027 960.3568626863274
2161.0442410334927 905.6115228296678
2161.6668728853874 1026.4935148752077
2162.289354684628 1044.2215758310751
2162.911686466332 1169.3839739539785
2163.533868265602 1307.702180987256
2164.1559001175337 1297.1626183787039
2164.7777820572046 1119.8635261503355
2165.399514119681 942.2418417998997
2166.021096340013 987.1443895752911
2166.6425287532384 1225.8715894703935
2167.263811394385 1075.9630789755881
2167.8849442984574 989.6997724609639
2168.505927500455 985.5143483366268
2169.126761035366 1025.8116980305908
2169.7474449381552 1138.1945228251002
2170.367979243778 1134.4682704502297
2170.9883639871823 1171.4083100766293
2171.608599203293 1233.3959110621602
2172.2286849270276 1295.5321433344727
2172.8486211932886 1165.6641603375072
2173.4684080369625 961.622630393506
2174.0880454929265 1031.4382036264112
2174.7075335960417 1026.1175527774565
2175.3268723811543 1269.429770479733
2175.9460618831 1233.9546334067431
2176.565102136701 1153.3341842839102
2177.1839931767627 1168.1248948690477
2177.802735038078 923.7264770971566
2178.421327755432 1022.1329383158827
2179.0397713635866 1190.094100957607
2179.658065897298 1003.4234065052211
2180.276211391305 1060.780487894242
2180.8942078803357 1179.7636669473327
2181.5120553991 1009.6604176795703
2182.129753982299 987.9895658835378
2182.7473036646206 1123.335513812022
2183.3647044807367 1009.0444190890294
2183.9819564653044 1081.553782439705
2184.599059652968 1216.245358008317
2185.216014078367 1208.3059201040658
2185.832819776113 1194.9176450133132
2186.4494767808137 1181.429219924741
2187.065985127063 1369.4786735608254
2187.682344849436 1053.7909740146345
2188.298555982501 1193.0432919977002
2188.9146185608097 1232.0306677673368
2189.530532618901 1214.0062044256174
2190.1462981912937 1098.0848659660587
2190.761915312507 1161.5899622827405
2191.377384017036 1109.5114730587911
2191.9927043393654 1113.2706409108796
2192.6078763139667 1139.592359751524
2193.2228999753006 1165.9968835464965
2193.837775357808 940.2586135547829
2194.452502495922 1193.008717827051
2195.0670814240602 1147.6493679928012
2195.6815121766285 922.5604739352664
2196.2957947880186 1110.16002793067
2196.9099292926057 1072.8114003399253
2197.523915724758 1116.551750515418
2198.137754118825 1218.2466653802799
2198.7514445091456 1245.7784107397597
2199.3649869300443 1156.129460174096
2199.9783814158327 1149.2143990890609
2200.5916280008096 1282.029758917574
2201.2047267192593 1192.2183844231893
2201.8176776054515 1179.8545346716865
2202.430480693649 1064.7237827839924
2203.0431360180955 961.8252335924863
2203.6556436130195 1109.2644874349612
2204.268003512645 962.9983736709726
2204.8802157511727 1222.5971732158803
2205.492280362796 1109.7290518906816
2206.1041973816937 1186.9628279621845
2206.715966842032 1244.7896358776338
2207.3275887779655 1198.8187420606098
2207.93906322363 1152.6029890501356
2208.550390213153 1030.0964618419835
2209.1615697806465 1100.1809412190555
2209.7726019602105 1105.3574479307526
2210.3834867859277 1110.3575547320966
2210.9942242918787 1188.635975749277
2211.6048145121167 1204.722289716926
2212.2152574806914 1220.7684041978218
2212.825553231638 1212.8078567825974
2213.435701798975 1163.8971926872503
2214.045703216707 1042.87508517566
2214.655557518832 1086.1391610373848
2215.2652647393297 1068.6790798005134
2215.874824912169 1081.8522477575927
2216.4842380713 1095.181834603429
2217.09350425067 1106.4935347280884
2217.7026234842033 1117.8696524138372
2218.311595805819 1129.2589875553908
2218.9204212494133 944.9965191706897
2219.52909984888 921.0570811071495
2220.137631638092 896.9954804640487
2220.7460166509154 1127.0921738291458
2221.354254921198 1244.3128661736669
2221.9623464827764 1231.1214923290718
2222.5702913694713 1107.2855683105447
2223.178089615096 937.211178512772
2223.7857412534486 982.6992807878362
2224.39324631831 1032.5869506238573
2225.000604843457 932.5905175457792
2225.607816862641 1025.7480771075093
2226.214882409611 1119.0007456448814
2226.8218015180973 1082.2456643803637
2227.4285742218217 1077.1723172852858
2228.0352005544864 1186.3463101749342
2228.6416805497847 1003.1162164363419
2229.248014241399 1092.010960023063
2229.8542016629945 934.6010124695873
2230.460242848223 1035.1757491754524
2231.0661378307304 1093.8151318713456
2231.671886644139 1130.77595249052
2232.277489322065 1154.7293562518585
2232.8829458981127 956.3028802458635
2233.48825640587 1227.4946405152818
2234.0934208789095 1155.513667892816
2234.6984393507955 1319.4301691460046
2235.3033118550793 1297.0267203424546
2235.9080384252975 1111.260471919271
2236.5126190949723 1005.5472499867577
2237.1170538976166 1019.4996019808108
2237.721342866729 874.1135766488882
2238.32548603579 1088.4835182002096
2238.9294834382763 1049.8196229708421
2239.533335107646 820.5340434305523
2240.1370410773434 874.7188643170981
2240.740601380803 928.9855154892433
2241.3440160514474 1026.6879468271834
2241.9472851226783 1102.5097920332548
2242.550408627896 1057.8039622456358
2243.1533866004793 1013.0408646101363
2243.756219073799 1072.8806154975548
2244.3589060812064 896.7725747195855
2244.961447656049 993.5623860760336
2245.5638438316564 1109.7655318843395
2246.166094641343 1233.6125683564878
2246.7682001184166 1021.5591075650158
2247.3701602961664 1007.7451578461753
2247.971975207871 1258.0305516501724
2248.5736448867974 928.0313674281363
2249.175169366197 1211.363747085466
2249.7765486793123 922.266951510541
2250.3777828593684 1065.9719208829679
2250.9788719395783 959.4608675859066
2251.579815953146 957.1347490364221
2252.1806149332606 954.7622393738257
2252.781268913097 1212.1723759482643
2253.381777925817 966.3823731183287
2253.9821420045737 1065.636936111288
2254.5823611825035 1308.6400434759446
2255.1824354927303 1161.2945692797223
2255.782364968365 1184.5478755467068
2256.38214964251 1096.9481925555278
2256.9817895482483 967.2572910487095
2257.5812847186553 1006.2900051070707
2258.180635186791 1045.4191075521408
2258.779840985704 1112.4668349364674
2259.37890214843 1266.950324328549
2259.97781870799 1164.1377358575269
2260.5765906973957 1122.9672818512242
2261.175218149645 1119.4447316739763
2261.773701097718 972.4098355228325
2262.3720395745895 785.7908640505569
2262.970233613216 886.2868379683935
2263.568283246548 1027.7898933535398
2264.1661885075137 1007.337613352772
2264.763949429038 986.824038220059
2265.3615660440246 923.7795766122081
2265.959038385374 1065.636359822852
2266.5563664859637 1108.9542722698757
2267.153550378669 906.0399612198592
2267.7505900963424 928.1075117975663
2268.3474856718312 997.5030036166069
2268.9442371379664 1099.1176125337774
2269.5408445275643 1013.245491086619
2270.1373078734377 1017.3777989380836
2270.7336272083758 1169.8979392867127
2271.32980256516 1117.5417586383105
2271.925833976562 1175.412991852383
2272.5217214753357 1127.5010752688172
2273.117465094223 1082.5424864333636
2273.7130648659586 1002.1210036285378
2274.308520823257 1173.9223931088459
2274.903832998827 1247.4676347279515
2275.4990014253563 1214.7521414436744
2276.094026135528 1181.951125046083
2276.6889071620117 976.0295996941177
2277.2836445374614 1003.1649334964529
2277.878238294519 1039.5755811221343
2278.472688465812 1025.66619640566
2279.066995083962 1011.7013269694653
2279.6611581815705 1144.266299154969
2280.255177791232 1154.4367115060654
2280.8490539455233 1164.6717185626824
2281.442786677013 1181.2127218473656
2282.0363760182554 1146.5141430420251
2282.6298220017943 1156.2194248907335
2283.223124660155 1166.01673808933
2283.816284025859 970.6306694513856
2284.4093001314086 1081.1448916113072
2285.002173009292 905.6160776876853
2285.5949026919952 1097.7888931306395
2286.1874892119777 1114.7399785192893
2286.7799326016993 1094.0013673410065
2287.3722328936 864.1178539030137
2287.964390120109 993.9697325121717
2288.556404313642 1016.920141074455
2289.1482755066027 1050.8782744462778
2289.7400037313873 1084.8470299289806
2290.3315890203703 1256.1751471662947
2290.9230314059205 1107.0982835652953
2291.5143309203904 957.8141425307115
2292.1054875961236 900.102271043718
2292.6965014654506 1106.8509971958476
2293.287372560684 1130.150869448374
2293.878100914131 1169.4296723920572
2294.468686558086 949.8446622238716
2295.059129524827 1000.2015279782909
2295.649429846617 1275.1832730601557
2296.239587555716 1329.149167289599
2296.8296026843636 1221.993514728866
2297.419475264791 1194.4184623359574
2298.0092053292137 958.0935374179235
2298.598792909839 1184.494493092867
2299.1882380388597 947.6265966259834
2299.777540748455 1050.8457135748627
2300.3667010707904 1181.3941552268348
2300.9557190380256 1071.387670939697
2301.544594682302 927.5039973382572
2302.1333280357503 1104.6610757113535
2302.721919130485 916.4523787417327
2303.3103679986198 1046.4467777677946
2303.898674672242 1037.5292474984199
2304.486839183437 1039.9940112883453
2305.0748615642697 946.6797903314009
2305.6627418468015 1161.4631709620016
2306.2504800630704 1086.832255618235
2306.8380762451143 923.119483488879
2307.425530424949 1011.6106470075844
2308.012842634582 1100.2970397037186
2308.6000129060103 1038.2599587883938
2309.187041271214 1054.065586469655
2309.773927762164 1217.9367893357971
2310.3606724108213 1025.6000575574517
2310.9472752491274 1015.4311281088305
2311.5337363090184 915.4761445856986
2312.120055622414 1066.9841582359516
2312.706233221221 950.4894611892145
2313.2922691373424 1097.4940153905532
2313.8781634026564 1011.8940090931786
2314.463916049037 926.0693037631951
2315.049527108342 818.6445451152665
2315.6349966124235 1018.8290673344729
2316.2203245931123 955.7283365333767
2316.8055110822315 892.4578825990162
2317.3905561115935 1000.8420156132815
2317.9754597129977 891.1450479985178
2318.560221918229 1004.7376082395274
2319.1448427590603 1032.4116096485818
2319.729322267256 796.3094343598164
2320.313660474563 1099.7217869212955
2320.8978574127195 1383.9995437080133
2321.481913113452 987.6723581025348
2322.0658276084705 760.4752301446837
2322.6496009294806 1105.728174934828
2323.233233108165 1035.3572480928055
2323.8167241762058 1236.1970444874817
2324.4000741652617 1157.353621572951
2324.983283106987 1123.5776425727015
2325.5663510330232 1170.346049154839
2326.1492779749933 1291.172827717657
2326.7320639645204 999.1508841780472
2327.3147090332004 1060.7120919073336
2327.897213212629 1174.5838977252038
2328.4795765343843 1126.3624010816836
2329.0617990300307 1000.289944937397
2329.643880731124 1188.6502235069352
2330.22582166921 1269.0016340843226
2330.807621875816 926.1345593304244
2331.3892813824623 864.1899783661632
2331.9708002206517 1029.5556252333868
2332.5521784218818 1095.1034335995087
2333.133416017634 1080.929438427797
2333.7145130393765 1066.754381765853
2334.295469518571 1214.4236206683386
2334.876285486658 1069.0705835641802
2335.456960975076 933.6583354832735
2336.037496015242 997.1022521916996
2336.6178906385667 1060.7097326601677
2337.198144876451 1200.7291770231034
2337.778258760278 1178.1254405170223
2338.3582323214214 1200.9748394725289
2338.938065591243 1223.8471926014126
2339.517758601087 1166.6943194437845
2340.0973113822965 907.7633673667464
2340.676723966193 820.7418430402926
2341.255996384094 795.6817122209402
2341.835128667295 1086.870887270502
2342.4141208470883 1025.6879385612951
2342.992972954751 952.2602526758961
2343.5716850215467 1069.3834120683373
2344.1502570787306 1024.4456676758068
2344.7286891575386 979.3707565803288
2345.3069812892045 1089.7512157886003
2345.885133504944 1108.0179150604777
2346.4631458359618 922.5109524761801
2347.04101831345 1017.209499495666
2347.6187509685915 1322.9462335567123
2348.196343832553 1109.173156227429
2348.7737969364935 1060.971363901083
2349.351110311558 1012.7317293785916
2349.9282839888765 1191.6745809503334
2350.5053179995757 1022.8579999315855
2351.0822123747585 860.8476969146395
2351.658967145526 914.0989499342583
2352.2355823429643 967.4931764140634
2352.812057998144 1043.85018409222
2353.3883941421263 834.0749968997816
2353.9645908059647 889.4409540438943
2354.540648020693 922.0738683942558
2355.116565817336 954.7996211306576
2355.6923442269126 871.1728673803631
2356.2679832804224 905.685904493031
2356.8434830088518 698.0323574975744
2357.41884344318 673.9757294681455
2357.994064614377 649.8401407261833
