#exp_cfg={"servo_angle": 0.0, "laser_lim": 100.0, "servo_angle_to": 18.0, "laser_wup": 0.0, "bt_dev": "EnSpectr-25AE3", "laser_wdn_max": 0.0, "frames": 10.0, "servo_used": 0, "servo_calib_use": 0, "laser_wdn_min": 0.0, "servo_pix_from": 90.0, "cooler_tout": 300.0, "servo_angle_from": 0.0, "servo_calib": "[-1.9174921013161362e-09, 3.9322238269163779e-05, -0.27385609119055809, 653.59552119713567]", "laser_autoctl": 0, "servo_pix_to": 3682.0, "laser_pw": 100.0, "cooler_on": 0, "laser_volt": 4.0, "cooler_autoctl": 0, "cooler_curr": 70.0, "cooler_startup": 10.0, "laser_fixed_pw": 0, "gain": 1.3, "offset": 2.53059635486, "servo_calib_degree": 3.0, "laser_curr": 55.0, "shutter": 8200.0, "servo_calib_step": 1.0, "laser_fixed_curr": 0, "exp": 2000.0, "ccd_volt": 4.7, "bt_addr": "00:06:66:62:5A:E3", "servo_delay": 500.0, "laser_autooff": 1}
#proc_cfg={"flat_auto_wnd": 200.0, "flat_auto_fr": 200.0, "flat_auto_shift": 5.0, "yconv": 1, "flatten": 1, "flatten_strength": 100.0, "xfrom": 300.0, "auto_max_frame": 2000.0, "auto_signal": 48000.0, "flat_auto_tol": 0.1, "autoclip": 1, "xrel_range": 0.0, "flat_auto_to": 4000.0, "intensity_adj": 1.0, "xrel": 7852.0, "rmhot": 1, "flat_auto_slit": 4.999999999999997, "auto_ini_exp": 300.0, "auto_off": 0, "xto": 2860.0, "flat_auto_ref": "", "flat_auto_rank": 1, "autobackg": 0, "xrel_adj": 0.0, "auto_black_lvl": 1, "base_wnd": 100.0, "sub_baseline": 0, "xconv": 2, "auto_max_exp": 1000.0, "auto_total_exp": 10000.0, "auto_exp": 0, "rmripple": 0, "black_lvl": 8219.4, "shutter_clip_adj": 0.0, "auto_bckg": 0, "flat_auto_thr": 0.9, "subbackg": 1}
316.8218498245369 11921.967325651582
317.89969571804795 11714.62340861077
318.977263876126 11622.347752197984
320.05455438786703 11583.497101256797
321.1315673423287 11570.480044631764
322.2083028285215 11509.371238798138
323.2847609354267 11485.31159127805
324.3609417519747 11419.40421902756
325.43684536705587 11394.513011201569
326.5124718695279 11313.98986149451
327.58782134820103 11330.59005626419
328.66289389184385 11197.689037937056
329.7376895891921 11173.921934341297
330.8122085289342 11176.236682422423
331.88645079971866 11143.834785613126
332.9604164901575 11052.741549393155
334.03410568881554 11056.233683877585
335.1075184842266 11074.554588635936
336.18065496487543 10923.213392911211
337.2535152192122 10907.998886459802
338.32609933564163 10979.98151211286
339.39840740253203 10840.54818857029
340.4704395082099 10769.79991595702
341.5421957409617 10805.839842824698
342.6136761890357 10768.146715782013
343.6848809406365 10744.492182681908
344.75581008392874 10667.615547546142
345.82646370703696 10619.481519616626
346.8968418980512 10578.465992769019
347.96694474501055 10560.311279467203
349.0367723359268 10614.32728267564
350.106324758759 10484.921592277784
351.1756021014353 10463.28022212103
352.2446044518383 10494.023688111321
353.31333189781435 10520.198483137385
354.38178452716966 10455.09530444196
355.449962427665 10412.252551280773
356.51786568702846 10358.676622875542
357.58549439294256 10476.939666998427
358.6528486330535 10410.59448477376
359.71992849496564 10399.350746210734
360.7867340662433 10398.300918230132
361.8532654344144 10334.256664348995
362.9195226869597 10404.269561349784
363.9855059113288 10243.445507918696
365.05121519492604 10270.573151229159
366.11665062511565 10364.877565055991
367.1818122892273 10345.152806721937
368.2467002745434 10221.0595433179
369.31131466831175 10237.088607439287
370.375655557742 10305.188865928447
371.4397230299983 10327.89606502276
372.5035171722102 10327.074649765764
373.5670380714637 10306.21193775365
374.6302858148101 10330.794280521015
375.6932604892554 10328.688229489573
376.7559621817709 10356.172601173495
377.81839097928605 10221.397697832674
378.8805469686886 10243.810286107606
379.94243023683157 10084.337864974666
381.0040408705263 10175.780104867496
382.0653789565458 10076.195221737977
383.1264445816196 10181.58643171177
384.1872378324406 10161.718236173218
385.2477587956637 10149.226516864986
386.3080075579037 10068.472044594331
387.3679842057336 10072.30016043613
388.4276888256918 10053.000003947667
389.48712150426945 10049.583847717111
390.54628232792857 9969.707334381546
391.6051713830857 9960.976624406645
392.66378875611736 10009.68940628638
393.7221345333637 9907.238249996728
394.7802088011249 9840.82442605059
395.838011645661 9880.81501923413
396.89554315319765 9776.579058905538
397.9528034099112 9779.554610225141
399.00979250194723 9727.780305961869
400.06651051541485 9605.828328129239
401.1229575363741 9677.96426295798
402.17913365085224 9725.946823052587
403.23503894483656 9643.683753830084
404.2906735042761 9606.913427598663
405.3460374150818 9536.717043935347
406.401130763119 9538.360298854072
407.455953634224 9548.667542959303
408.5105061141876 9590.222052055555
409.56478828876243 9413.79514836142
410.6188002436629 9443.860969591875
411.6725420645689 9466.224967384078
412.72601383711117 9435.581460170051
413.77921564689314 9446.631418502964
414.8321475794728 9384.970075911868
415.88480972036814 9334.530176487428
416.93720215506437 9507.737811153696
417.9893249690049 9344.615280322423
419.04117824759123 9218.529805782391
420.09276207619223 9212.574571355797
421.144076540133 9189.006466072278
422.1951217247042 9283.970725356205
423.24589771515275 9188.566234837792
424.2964045966928 9100.145473399902
425.34664245449494 9168.987538552365
426.3966113736933 9171.128465657395
427.4463114393875 9141.347891887552
428.49574273662984 9068.797171414652
429.5449053504417 9085.788928070844
430.5937993658026 9069.15428210874
431.6424248676558 9030.054129962122
432.6907819409007 8960.197985069626
433.73887067040596 9035.662706821831
434.7866911409965 9025.715784733708
435.8342434374608 8930.652694414617
436.88152764455117 8896.589272931871
437.9285438469724 8925.270380575757
438.9752921294057 8871.461897902322
440.02177257648145 8810.20354477902
441.06798527279716 8819.996258581068
442.1139303029122 8835.050276703167
443.1596077513459 8768.722625736493
444.2050177025794 8806.132208004803
445.25016024105753 8780.318122869045
446.2950354511886 8774.762341720074
447.33964341733736 8714.948113887107
448.383984223834 8752.351409783663
449.4280579549686 8734.27014576726
450.471864694995 8683.705899886763
451.5154045281306 8736.93373906723
452.5586775385509 8651.498758735166
453.60168381039693 8661.312367917306
454.64442342776783 8754.090589709824
455.6868964747264 8659.284531334566
456.7291030353008 8630.176951262836
457.77104319347563 8669.70447880575
458.8127170332027 8663.087588724058
459.854124638392 8646.243610565216
460.895266092919 8735.452564605686
461.93614148061897 8799.4984342263
462.97675088529104 8837.007479931135
464.01709439069236 8761.956501155593
465.0571720805492 8804.671811565615
466.0969840385442 8817.381661042786
467.1365303483253 8854.201168301375
468.17581109350067 8930.848691517585
469.2148263576437 8827.866005706612
470.2535762242878 8824.754916638773
471.29206077693016 8839.28121601135
472.33028009902773 8894.466160636639
473.3682342740012 8867.522777466811
474.40592338523857 8856.091499550532
475.4433475160804 8932.363871257514
476.4805067498364 8866.788484020024
477.51740116978 8992.727597672787
478.5540308591426 8929.423019522406
479.59039590112116 9027.659005381203
480.6264963788726 9012.815759377003
481.6623323755193 9120.409440479945
482.6979039741436 9135.599709644774
483.7332112577915 9221.157396564853
484.76825430947247 9318.63955708368
485.80303321215797 9364.809468086825
486.837548048783 9367.847779347005
487.8717989022425 9555.673248265746
488.90578585539697 9520.29242353634
489.9395089910686 9526.622613425101
490.97296839203955 9512.121803573067
492.00616414106116 9493.8270317024
493.0390963208429 9454.528774062595
494.0717650140559 9469.858333445956
495.10417030333883 9370.761345005998
496.1363122712901 9314.122866391024
497.16819100046814 9185.419077782246
498.1998065734024 9084.163113263854
499.2311590725767 9107.849392409467
500.26224858044407 8975.480000783522
501.2930751794156 8886.33684606366
502.3236389518679 8883.62275896114
503.35393998014115 8654.673952931076
504.38397834653733 8660.718290016059
505.4137541333221 8625.82732177358
506.4432674227228 8511.943155801539
507.4725182969323 8521.073699465214
508.5015068381035 8364.960694021336
509.53023312835467 8323.942535924496
510.55869724976765 8281.546335034373
511.58689928438434 8224.893522132877
512.6148393142121 8214.757307696205
513.6425174212218 8269.090568367585
514.6699336873462 8279.379344503302
515.6970881944835 8273.351997578455
516.7239810244901 8276.835532737094
517.7506122591931 8235.517524541388
518.7769819803761 8388.676569697776
519.8030902697901 8303.84133210682
520.8289372091476 8393.084145043998
521.8545228801249 8356.92359468702
522.8798473643619 8273.145502533032
523.9049107434621 8288.110804574679
524.9297130989908 8273.238227632562
525.9542545124805 8221.82060139033
526.9785350654201 8217.548939701222
528.0025548392696 8265.937628095524
529.0263139154504 8168.023396657872
530.0498123753423 8068.312805838274
531.073050300296 8108.87349641511
532.0960277716204 8119.788584533295
533.1187448705896 8110.399531412947
534.1412016784416 8109.560834829199
535.1633982763833 8087.426947246466
536.1853347455726 8059.855258674223
537.2070111671401 8029.561514578524
538.2284276221817 8009.883996005716
539.2495841917516 7893.395904341567
540.2704809568677 7919.001181174821
541.2911179985167 7854.284114034485
542.3114953976419 7783.092960848162
543.3316132351592 7796.220611937364
544.3514715919409 7635.923953727588
545.3710705488247 7621.783719950926
546.3904101866156 7554.929397203996
547.4094905860784 7558.842763793366
548.4283118279418 7546.903444370189
549.4468739929034 7563.392169725186
550.4651771616191 7552.665043146773
551.4832214147063 7467.672175641766
552.501006832761 7502.72609026304
553.5185334963226 7531.856540214751
554.5358014859103 7442.023675769162
555.5528108820035 7461.865941375225
556.5695617650363 7465.954559855537
557.5860542154242 7514.382360970987
558.6022883135283 7469.747982601213
559.6182641396881 7410.958999048124
560.6339817741991 7389.463232014508
561.6494412973225 7424.952382001148
562.6646427892883 7455.195056433219
563.6795863302796 7394.182673295637
564.694272000459 7392.237558463936
565.7086998799423 7363.468185567758
566.7228700488104 7385.266971206266
567.7367825871115 7359.474580989756
568.7504375748576 7346.145166856948
569.7638350920224 7327.401346482693
570.7769752185486 7372.64918514565
571.7898580343353 7343.410005003738
572.802483619258 7333.447410104546
573.8148520531431 7418.342874331471
574.8269634157932 7387.312233774885
575.8388177869692 7378.229012738579
576.8504152463938 7434.39233392194
577.8617558737587 7481.3859208663325
578.8728397487175 7462.538337788554
579.883666950891 7503.984730489467
580.8942375598654 7540.887621213375
581.9045516551851 7564.011830952628
582.9146093163617 7622.098581927542
583.924410622878 7656.407598882547
584.9339556541727 7670.805414077069
585.9432444896538 7749.955249333056
586.9522772086875 7646.245703586717
587.9610538906127 7710.138147676023
588.9695746147318 7622.693878985025
589.9778394603054 7671.416852561223
590.985848506567 7713.534708946318
591.9936018327098 7628.951428926988
593.0010995178891 7518.927919999095
594.0083416412344 7540.672915970373
595.0153282818283 7447.782844249879
596.0220595187293 7409.886488827511
597.0285354309508 7356.9185926554765
598.0347560974806 7256.234787200522
599.0407215972609 7296.597622527219
600.0464320092051 7211.319727174106
601.0518874121954 7290.272398939662
602.0570878850685 7284.012382115079
603.062033506636 7225.298617783369
604.0667243556636 7289.012909250389
605.0711605108936 7244.743791791172
606.0753420510264 7316.020249856146
607.0792690547278 7243.95702459755
608.082941600629 7213.854588523313
609.0863597673306 7134.9471913834495
610.0895236333909 7168.020628758757
611.0924332773357 7227.936553554289
612.0950887776617 7207.9884608776465
613.0974902128219 7264.626663050991
614.0996376612384 7368.1169479128175
615.1015312013005 7363.30921408615
616.1031709113595 7486.651847346744
617.1045568697336 7460.710870313376
618.1056891547069 7597.628027042716
619.1065678445229 7671.56722773498
620.1071930173985 7823.566427204505
621.1075647515099 7853.262735812893
622.1076831250048 7951.903745229494
623.1075482159849 8098.794314116222
624.1071601025305 8140.58534844674
625.1065188626781 8237.961379193424
626.105624574433 8410.805126932006
627.1044773157682 8428.790066695614
628.1030771646128 8541.54356675947
629.1014241988742 8605.672759555275
630.0995184964158 8736.836667293628
631.0973601350688 8761.676940477366
632.0949491926294 8878.15496200575
633.0922857468631 8732.918400900051
634.089369875499 8780.994256313945
635.0862016562278 8727.568270810121
636.0827811667077 8631.018184771598
637.0791084845641 8665.065508590622
638.0751836873878 8591.163799846274
639.0710068527369 8533.49805481015
640.0665780581294 8408.82422385443
641.0618973810506 8330.373647666176
642.0569648989604 8220.666666751476
643.0517806892676 8147.660543449228
644.0463448293649 8008.528723729539
645.040657396592 7960.83012776564
646.0347184682723 7875.79713074449
647.0285281216875 7785.789700954154
648.0220864340772 7722.542305759816
649.0153934826558 7538.508126327042
650.0084493446047 7536.746323912899
651.0012540970674 7439.751492405534
651.9938078171526 7303.460760899514
652.9861105819346 7241.180889071269
653.9781624684565 7175.945281165496
654.9699635537254 7192.252560127774
655.9615139147136 7129.643435697646
656.9528136283589 7009.413279447688
657.9438627715699 7103.322804767624
658.9346614212154 6980.349512037987
659.925209654135 6878.014133816428
660.9155075471263 7000.172323722007
661.9055551769616 6846.56402872698
662.895352620375 6906.757202115068
663.8848999540678 6849.763700466967
664.8741972547068 6766.475856150226
665.863244598926 6810.006218556579
666.8520420633213 6814.378967235345
667.8405897244611 6748.921226995539
668.8288876588758 6674.399164308219
669.8169359430613 6691.049623299089
670.8047346534822 6744.299012677683
671.7922838665672 6676.950272815038
672.7795836587156 6705.501942589583
673.766634106285 6713.582098846462
674.7534352856092 6722.276938593105
675.7399872729766 6650.072146965709
676.7262901446538 6807.128064852685
677.712343976862 6737.0337480522285
678.6981488457986 6787.260474986945
679.6837048276229 6685.203956390746
680.6690119984596 6699.584269259054
681.6540704344043 6687.836567353181
682.6388802115107 6674.620502520031
683.6234414058108 6674.185975972496
684.6077540932874 6622.158618524498
685.591818349907 6550.32034016886
686.575634251587 6524.912287345849
687.5592018742263 6500.29732786931
688.5425212936734 6458.555098195081
689.5255925857564 6430.542523089682
690.5084158262707 6404.435027643453
691.4909910909646 6407.839846073524
692.4733184555644 6351.656551168173
693.4553979957618 6365.854676815461
694.4372297872123 6289.436220929021
695.4188139055404 6254.131277616321
696.4001504263324 6225.971822287937
697.3812394251509 6238.167239374718
698.3620809775111 6179.979321849618
699.3426751589104 6180.433796283526
700.3230220448004 6171.414558977693
701.3031217106054 6170.156248725831
702.2829742317172 6185.042646478606
703.2625796834873 6164.745478587601
704.2419381412474 6117.586491085937
705.22104968028 6182.800243219639
706.1999143758458 6145.555324922347
707.178532303169 6138.959408721737
708.1569035374378 6157.454603718246
709.1350281538107 6182.38696793917
710.1129062274158 6151.273285088813
711.0905378333373 6289.171073724779
712.0679230466376 6235.959275926315
713.0450619423427 6250.556203957718
714.0219545954424 6239.47854272623
714.9986010808989 6255.866882723996
715.9750014736292 6230.12064407753
716.9511558485392 6297.73425418141
717.9270642804786 6372.581694539188
718.9027268442787 6383.462846260393
719.8781436147328 6391.681813826897
720.8533146666014 6314.621459337382
721.828240074612 6358.061756804904
722.8029199134635 6343.622249674731
723.7773542578125 6301.822507259363
724.751543182294 6275.134408479763
725.7254867615029 6297.099010753614
726.6991850700015 6215.817211398255
727.6726381823228 6243.028922920182
728.6458461729599 6177.883611706812
729.6188091163858 6238.960709121025
730.5915270870246 6154.123050432519
731.5640001592856 6099.664790693284
732.536228407529 6141.877750300218
733.5082119060917 6100.416614300104
734.4799507292755 6069.538984846403
735.4514449513481 6146.577516930924
736.4226946465496 6149.5308651868845
737.3936998890786 6162.951508116113
738.3644607531078 6039.423200976635
739.3349773127793 6116.591506557334
740.3052496421951 6065.3584722617725
741.27527781543 6054.636346355392
742.2450619065221 6068.555417928318
743.2146019894826 6053.5749365421525
744.183898138288 6010.7601503381575
745.1529504268801 5939.720674850077
746.1217589291682 5928.069569387557
747.0903237190341 5831.204825185367
748.058644870318 5905.266718280973
749.0267224568397 5823.856299020223
749.994556552374 5831.606172795966
750.9621472306771 5904.2878916473155
751.9294945654583 5809.660996303558
752.8965986304011 5846.848775444393
753.8634594991636 5850.691495158504
754.8300772453586 5861.39826198512
755.7964519425768 5879.594778136636
756.762583664371 5847.767506561139
757.7284724842611 5864.604474012018
758.6941184757416 5866.799317761004
759.6595217122667 5881.722326514714
760.6246822672638 5892.679251535942
761.5896002141235 5847.464657018731
762.5542756262093 5901.988393853009
763.5187085768503 5820.624045474393
764.4828991393406 5854.2264255912905
765.4468473869474 5886.381988362185
766.4105533929032 5855.349422849757
767.3740172304078 5772.524788512894
768.3372389726283 5750.631163898792
769.3002186926988 5743.856978213909
770.2629564637282 5669.907451834159
771.2254523587872 5660.734540513495
772.1877064509154 5636.39535571972
773.1497188131179 5602.70328164876
774.1114895183728 5593.811865713127
775.0730186396268 5595.494394802447
776.0343062497905 5542.275219468444
776.9953524217381 5530.87703745211
777.9561572283274 5552.896891474544
778.9167207423689 5538.040616755842
779.8770430366476 5543.388185481853
780.8371241839159 5507.862380427955
781.7969642568951 5524.215328408424
782.7565633282757 5537.798634625216
783.7159214707099 5446.315608691063
784.6750387568281 5476.825420344061
785.6339152592227 5438.083070730552
786.5925510504512 5502.734693147581
787.5509462030477 5452.949180380715
788.5091007895098 5436.440831531236
789.4670148823006 5495.094983902449
790.4246885538596 5383.60802581236
791.3821218765861 5433.3069464463215
792.3393149228505 5444.923085627338
793.2962677649975 5512.157718642199
794.2529804753303 5516.561517771051
795.20945312613 5514.450935615894
796.1656857896378 5520.085766569721
797.1216785380675 5556.110758064286
798.0774314435985 5601.7294092618195
799.0329445783846 5602.653183494762
799.9882180145414 5603.834106092631
800.9432518241574 5663.202065963855
801.89804607929 5674.392218879653
802.852600851962 5751.229929654519
803.8069162141637 5712.652434947018
804.760992237856 5798.990738565001
805.714828994971 5742.451283323177
806.6684265574077 5813.6636614456465
807.6217849970271 5775.811553993206
808.574904385674 5741.074199901874
809.527784795142 5752.817731673984
810.4804262972102 5846.949304787391
811.4328289636178 5701.943007363707
812.3849928660748 5662.541263193645
813.3369180762638 5616.072113034292
814.2886046658241 5517.0307060699915
815.2400527063783 5519.892762697919
816.1912622695108 5470.989962987094
817.1422334267718 5439.563627690399
818.0929662496856 5425.25660994014
819.0434608097457 5435.288890569852
819.9937171784059 5322.422594048157
820.9437354271013 5239.509341445927
821.8935156272255 5283.787065042639
822.8430578501484 5195.999001674796
823.7923621672016 5070.864039519094
824.7414286496896 5153.656054169729
825.6902573688876 5184.251350672127
826.6388483960363 5173.830462896594
827.5872018023492 5140.261933286216
828.5353176590033 5115.390833767075
829.4831960371503 5063.603262514497
830.4308370079016 5075.179019713472
831.3782406423525 5101.199530296179
832.3254070115545 5020.007050570178
833.2723361865319 5032.140668520815
834.2190282382799 5028.838119695043
835.1654832377644 5067.262106075053
836.1117012559116 5030.081686929128
837.0576823636256 5110.9718039055
838.003426631778 5003.056664947626
838.9489341312074 4955.8245418457445
839.8942049327197 4993.675346818819
840.8392391070975 5038.065090554999
841.7840367250865 5040.3191863018965
842.7285978573982 5015.689955653014
843.672922574724 5009.477218684081
844.6170109477152 4967.704902927287
845.560863046996 5033.766003585111
846.5044789431595 4987.657625307931
847.4478587067697 5019.89140859912
848.3910024083561 4994.845095455183
849.333910118421 5037.130899946478
850.2765819074339 4989.340213174489
851.2190178458332 5040.648013112109
852.161218004032 5030.656158956454
853.1031824524016 5013.117707737071
854.0449112612987 4995.222776152402
854.9864045010327 5041.999503422444
855.9276622418947 4964.140579044391
856.8686845541379 4967.618745933719
857.8094715079915 4958.059632844797
858.7500231736467 4985.0158223848985
859.690339621271 5022.523706512935
860.6304209209939 5017.122370401035
861.5702671429244 4988.134263083719
862.5098783571284 5026.539339879554
863.4492546336569 5100.333231778908
864.3883960425155 4980.163051230115
865.3273026536863 4973.517786388626
866.2659745371238 5048.515508604563
867.2044117627465 5123.007735388926
868.1426144004472 4976.077308019457
869.0805825200823 5035.106924873579
870.0183161914847 5121.9683084540075
870.9558154844526 5123.9540691275
871.8930804687552 5068.127266108814
872.8301112141307 5207.408365356474
873.7669077902865 5136.14717246311
874.7034702669062 5230.526433064847
875.6397987136315 5232.9498017452
876.5758932000863 5189.327097861753
877.5117537958522 5247.466297613846
878.4473805704911 5342.169651877299
879.3827735935283 5216.493571572629
880.3179329344603 5331.068521291219
881.2528586627541 5333.416932484596
882.1875508478479 5375.91909519823
883.1220095591489 5315.534203253223
884.0562348660296 5261.3550966351095
884.9902268378391 5351.567994067574
885.9239855438955 5339.311462190246
886.8575110534839 5287.723315117239
887.7908034358588 5160.172986144151
888.7238627602474 5235.458500994966
889.6566890958475 5215.081287900308
890.5892825118208 5202.240877711984
891.5216430773125 5180.467148834157
892.4537708614189 5131.3282193340365
893.3856659332196 5083.393959234547
894.3173283617652 5057.500855885894
895.2487582160684 5090.7374236243095
896.179955565116 5040.361541803059
897.110920477864 4963.815498315316
898.0416530232451 4982.957986478561
898.9721532701478 4888.5068988497205
899.9024212874428 4930.793707297862
900.8324571439662 4892.842178362225
901.7622609085302 4884.55726010494
902.6918326499072 4809.422520080357
903.6211724368477 4870.481237665582
904.5502803380696 4846.3010321409265
905.4791564222614 4868.6501454188965
906.4078007580792 4900.348814189601
907.3362134141571 4812.600768271389
908.2643944590909 4824.409972072768
909.1923439614493 4798.831186740076
910.1200619897754 4809.491864837291
911.0475486125779 4838.173402143894
911.9748038983344 4749.601643516466
912.9018279155007 4759.743597669438
913.8286207324982 4824.872851692679
914.7551824177117 4799.7573839597235
915.6815130395116 4769.352647320302
916.6076126662283 4726.094203898898
917.533481366163 4811.351439978105
918.4591192075914 4727.464469929332
919.3845262587565 4797.134867151738
920.3097025878706 4777.309223795415
921.2346482631237 4748.557871288541
922.1593633526682 4752.787911670081
923.0838479246304 4747.752821699857
924.0081020471061 4771.861790921475
924.9321257881656 4720.885717656254
925.8559192158464 4736.898783123406
926.7794823981512 4668.133614728835
927.7028154030686 4721.975636481795
928.6259182985414 4657.705996240029
929.5487911524906 4710.618348541206
930.4714340328119 4638.128425565862
931.3938470073608 4660.337314381466
932.3160301439748 4697.389166876546
933.2379835104548 4676.762627409458
934.1597071745709 4759.295359894567
935.0812012040769 4766.365013196935
936.002465666681 4701.681987489173
936.9235006300696 4676.544348858892
937.8443061619055 4763.041106452407
938.7648823298077 4617.630248535338
939.6852292013809 4791.194099622049
940.6053468441951 4726.05177943308
941.5252353257874 4644.806935620166
942.4448947136698 4649.315141785973
943.364325075323 4726.690672874187
944.2835264782043 4683.141557594687
945.2024989897309 4720.0324634897
946.1212426773054 4716.890095089011
947.0397576082851 4638.824278780483
947.9580438500125 4705.443750340373
948.8761014697939 4692.986420710437
949.7939305349064 4700.952614830571
950.7115311125999 4671.587125572108
951.6289032700952 4678.0642868758705
952.5460470745875 4682.086601509558
953.4629625932339 4699.073948283907
954.3796498931715 4754.097467750601
955.2961090415029 4720.245245989858
956.2123401053068 4773.505752873933
957.1283431516276 4688.978028447302
958.0441182474842 4687.443064802761
958.9596654598663 4678.350552122807
959.8749848557309 4700.795535735158
960.7900765020167 4685.791352473022
961.7049404656209 4713.96204785078
962.6195768134185 4647.657924657591
963.5339856122537 4654.399817418238
964.4481669289453 4667.766229581486
965.3621208302793 4583.619402631914
966.2758473830145 4619.447142560426
967.1893466538822 4668.085234573363
968.1026187095813 4606.786591383343
969.0156636167867 4656.974488255272
969.9284814421426 4607.542648073154
970.8410722522622 4689.63434014758
971.753436113735 4566.9584504165
972.6655730931161 4635.9760102173
973.5774832569368 4618.531969865283
974.4891666716958 4672.012624642057
975.4006234038698 4619.012210025082
976.3118535198955 4613.552515339214
977.2228570861935 4613.02825749944
978.1336341691494 4597.4641159429975
979.0441848351202 4599.431697752256
979.9545091504333 4607.022166882398
980.864607181391 4642.3937427319015
981.7744789942699 4649.378471190396
982.6841246553086 4692.619390723941
983.5935442307236 4678.945040009169
984.5027377867027 4664.916367530252
985.4117053894024 4727.353965865806
986.3204471049557 4614.992014253685
987.2289629994648 4664.847135646212
988.1372531390007 4759.366607252263
989.0453175896091 4659.698990346808
989.9531564173067 4664.720704177649
990.860769688079 4613.22476317344
991.7681574678918 4686.540138107044
992.6753198226706 4786.359268179264
993.582256818323 4711.378145423419
994.4889685207218 4746.85646067255
995.3954549957143 4759.302589334616
996.301716309119 4704.7879253117535
997.2077525267232 4831.5939285003205
998.1135637142943 4790.1677438730385
999.0191499375615 4837.564354770017
999.924511262232 4709.863358469638
1000.8296477539861 4787.359848677786
1001.7345594784656 4783.05342097296
1002.6392465012996 4755.189632799463
1003.5437088880753 4826.468624533884
1004.4479467043584 4743.91876650871
1005.3519600156869 4691.551289240769
1006.2557488875718 4775.360042000884
1007.1593133854858 4743.436336769119
1008.0626535748888 4792.0965892447375
1008.9657695212009 4744.548472903327
1009.8686612898182 4713.307201557973
1010.7713289461135 4857.487681469292
1011.6737725554212 4785.560228090571
1012.5759921830577 4752.38955171085
1013.4779878943027 4802.86762589538
1014.379759754418 4759.898988806716
1015.2813078286254 4756.610133828744
1016.18263218213 4710.225819928955
1017.0837328801026 4708.383529003127
1017.9846099876886 4781.304740131191
1018.8852635700023 4688.291577883193
1019.7856936921362 4643.1566336037895
1020.6859004191447 4653.826068023953
1021.5858838160675 4670.028675402976
1022.4856439479063 4661.497880161511
1023.3851808796389 4703.461468180626
1024.2844946762143 4689.931832146243
1025.183585402554 4656.22264289136
1026.082453123554 4649.736560490627
1026.9810979040776 4659.46803084024
1027.8795198089647 4587.325117303845
1028.777718903024 4608.033489048882
1029.6756952510368 4589.986848497267
1030.5734489177648 4472.555042724811
1031.4709799679313 4628.766004741763
1032.3682884662358 4561.91319550182
1033.2653744773506 4606.912846335343
1034.1622380659192 4559.013853228755
1035.058879296559 4581.684559673939
1035.9552982338591 4646.280010918028
1036.8514949423825 4565.051067454044
1037.7474694866614 4677.544424539451
1038.6432219312028 4680.846876144101
1039.5387523404825 4743.427263820191
1040.4340607789582 4754.443844693165
1041.3291473110476 4786.738297140631
1042.2240120011465 4839.20001420598
1043.1186549136273 4938.844572361139
1044.0130761128294 4958.869624822789
1044.9072756630649 5089.05849139392
1045.8012536286205 5145.068364194814
1046.6950100737577 5135.940132962756
1047.588545062701 5195.907680698824
1048.481858659663 5255.259445017476
1049.3749509288118 5297.9306119030425
1050.2678219343034 5244.2176824946
1051.1604717402515 5229.7963517638655
1052.0529004107575 5258.965094585928
1052.9451080098825 5397.823614181166
1053.8370946016694 5258.75742113931
1054.7288602501267 5253.495719079146
1055.6204050192446 5159.21889157316
1056.511728972977 5290.213080224641
1057.402832175254 5191.9419953151955
1058.2937146899785 5087.110944955084
1059.1843765810263 5047.4593812535295
1060.0748179122456 5036.8778265713245
1060.9650387474576 5071.305781086463
1061.855039150456 5016.427517010837
1062.7448191850071 4951.756543282701
1063.6343789148505 4810.372868079981
1064.5237184037014 4865.310370841751
1065.412837715241 4826.033768020146
1066.3017369131267 4759.33181058717
1067.190416060992 4741.873582581486
1068.0788752224398 4681.494795740599
1068.9671144610438 4760.415297426734
1069.8551338403558 4624.5200767108745
1070.7429334239023 4764.69967304676
1071.6305132751695 4640.592478312783
1072.517873457633 4650.513101104566
1073.4050140347335 4720.848267263891
1074.2919350698776 4675.014004555985
1075.1786366264623 4611.862192781994
1076.0651187678395 4615.6509914426215
1076.95138155735 4586.901303196454
1077.8374250582929 4536.054870644334
1078.7232493339507 4616.831344434971
1079.608854447577 4570.876556657167
1080.4942404623907 4571.790502614211
1081.3794074415982 4608.387363245556
1082.2643554483657 4547.243630001092
1083.149084545841 4518.962934391066
1084.033594797138 4448.523340317449
1084.9178862653516 4484.8032790458765
1085.8019590135427 4470.236953398838
1086.6858131047484 4479.113038404328
1087.5694486019802 4517.730297376596
1088.4528655682225 4493.940752843146
1089.3360640664287 4577.198909406898
1090.2190441595321 4467.206919261584
1091.1018059104317 4577.14354197746
1091.98434938201 4513.311347774243
1092.866674637111 4508.843721089456
1093.748781738559 4520.1744047324855
1094.6306707491512 4510.371740960053
1095.5123417316554 4381.213246202876
1096.3937947488157 4402.92233734263
1097.2750298633455 4406.800336530626
1098.156047137938 4383.324049606018
1099.0368466352556 4474.145005572577
1099.9174284179317 4428.2819617698815
1100.7977925485757 4369.81381403031
1101.6779390897755 4379.240352789248
1102.5578681040806 4420.133607013262
1103.4375796540226 4410.110961464883
1104.3170738021054 4401.193141606852
1105.1963506108077 4381.010358396657
1106.0754101425773 4337.949200303884
1106.9542524598382 4385.549382886915
1107.8328776249855 4375.959620003065
1108.7112857003904 4359.119626443231
1109.5894767483987 4347.869632737168
1110.4674508313292 4394.875582291344
1111.3452080114657 4464.576557143411
1112.2227483510815 4443.943251443829
1113.1000719124077 4504.03066020317
1113.9771787576592 4499.007673484648
1114.854068949022 4507.846126827424
1115.7307425486542 4545.124395306531
1116.6071996186893 4610.516410829276
1117.483440221229 4773.871545218053
1118.3594644183577 4674.01066701727
1119.235272272128 4736.999080778847
1120.1108638445658 4751.28503729747
1120.9862391976712 4872.067043818774
1121.8613983934229 4853.514503223368
1122.7363414937627 4874.54757243696
1123.6110685606182 4991.770313049046
1124.485579655884 5052.982289565449
1125.359874841426 5046.018977940237
1126.2339541790916 5057.27253545493
1127.1078177306936 5152.205613560027
1127.9814655580267 5071.220975441893
1128.854897722851 5183.543334161334
1129.7281142869106 5192.295586337786
1130.6011153119125 5228.9413189572415
1131.473900859548 5246.041627855551
1132.3464709914697 5142.632044994016
1133.2188257693178 5162.755668683412
1134.0909652546961 5153.473736015051
1134.96288950919 5076.6364436128515
1135.8345985943506 5079.568671699757
1136.7060925717087 5062.01074204182
1137.57737150277 5039.796024348134
1138.4484354490069 4882.964429950609
1139.3192844718778 4835.352895151645
1140.1899186327992 4759.489126511679
1141.060337993178 4816.517419590561
1141.930542614382 4788.358976223546
1142.8005325577597 4771.405308349008
1143.670307884635 4524.778600114142
1144.5398686563003 4667.232299820522
1145.409214934025 4527.196735906198
1146.2783467790541 4400.954182564353
1147.1472642526023 4433.132141055788
1148.0159674158622 4477.393694055604
1148.8844563300026 4374.095025853398
1149.7527310561618 4347.701010561207
1150.6207916554504 4396.296306971117
1151.4886381889592 4309.591140864689
1152.3562707177498 4308.91357376597
1153.2236893028585 4261.322232418888
1154.090894005296 4200.708795365936
1154.9578848860474 4245.57387049681
1155.8246620060709 4191.820559975298
1156.6912254262988 4220.416396996529
1157.5575752076438 4236.284387320871
1158.42371141098 4219.053493529311
1159.2896340971656 4191.700401534325
1160.1553433270346 4229.253979580702
1161.0208391613887 4169.873456057396
1161.8861216610057 4156.3154680577045
1162.75119088664 4207.038815872304
1163.6160468990201 4082.057370599106
1164.4806897588442 4103.770783816887
1165.3451195267917 4147.092893643755
1166.2093362635114 4210.736357455648
1167.0733400296285 4190.011762749198
1167.9371308857444 4060.1103683303604
1168.8007088924278 4112.040361092207
1169.6640741102328 4170.315123834947
1170.5272265996773 4111.806072618329
1171.390166421259 3962.9761369904118
1172.252893635452 4098.841510946187
1173.1154083026995 4129.666688610873
1173.977710483421 4109.729489362357
1174.8398002380145 4062.3381873950493
1175.7016776268483 4130.645956989027
1176.563342710264 4058.5649193392505
1177.4247955485826 4078.3847254212915
1178.2860362020947 4099.127764597021
1179.147064731069 4053.347673201993
1180.0078811957483 4196.468565551335
1180.8684856563486 4188.62556362146
1181.7288781730604 4194.543342771901
1182.589058806052 4229.585840870806
1183.4490276154593 4259.861543941197
1184.3087846614017 4198.057203735129
1185.1683300039676 4234.545502753217
1186.027663703222 4382.254786123436
1186.8867858192025 4361.113647680638
1187.7456964119228 4364.784464832332
1188.6043955413716 4411.232625689327
1189.4628832675116 4439.4567691883
1190.3211596502842 4441.514685239157
1191.179224749596 4546.6116673001325
1192.0370786253388 4456.823472321543
1192.8947213373758 4538.490932560303
1193.7521529455407 4604.899941989948
1194.6093735096438 4553.483314536448
1195.466383089477 4564.798544011102
1196.3231817447977 4614.718579204799
1197.1797695353398 4618.529347892799
1198.0361465208189 4595.4892053086205
1198.8923127609214 4537.0397730040495
1199.7482683153048 4715.124325829659
1200.6040132436028 4578.496456056846
1201.459547605431 4616.912284398784
1202.3148714603722 4648.927561025202
1203.1699848679855 4547.256018088141
1204.0248878878065 4684.951509741821
1204.8795805793507 4553.210327453369
1205.7340630020935 4563.998029968171
1206.5883352155033 4566.969596952684
1207.4423972790064 4556.899013192339
1208.2962492520237 4570.323489580636
1209.1498911939307 4633.137701532655
1210.0033231640937 4564.895901116302
1210.8565452218427 4504.3668208127
1211.7095574264913 4491.21371578652
1212.5623598373222 4456.1770102216615
1213.4149525135963 4391.483783750084
1214.2673355145507 4358.828784827121
1215.1195088993936 4366.343638269767
1215.9714727273113 4365.235311274551
1216.8232270574663 4475.401481747958
1217.6747719489904 4340.718231890569
1218.5261074609934 4373.072244832135
1219.3772336525653 4343.726352040342
1220.2281505827668 4344.447581287378
1221.0788583106296 4407.296414991951
1221.9293568951707 4270.251320611974
1222.7796463953746 4196.997693676406
1223.629726870202 4208.457767865877
1224.4795983785934 4335.544705119519
1225.3292609794553 4198.000858019692
1226.1787147316809 4169.735451876931
1227.0279596941327 4236.060182386084
1227.8769959256424 4231.78903207114
1228.7258234850306 4238.088234078486
1229.5744424310833 4112.653124039905
1230.422852822563 4181.437340167301
1231.2710547182105 4228.7400354260735
1232.119048176739 4169.584477074486
1232.9668332568417 4127.65955902596
1233.8144100171812 4115.377908257081
1234.6617785163999 4146.516542675297
1235.508938813111 4127.136710227998
1236.3558909659114 4138.34544490165
1237.2026350333617 4219.492504790118
1238.049171074008 4124.675396582015
1238.8954991463652 4096.993366863185
1239.741619308932 4094.008190696534
1240.587531620169 4121.128828802699
1241.4332361385277 4147.2387161574725
1242.2787329224248 4073.430619818225
1243.1240220302534 4057.9539146170086
1243.9691035203869 4077.001913450794
1244.813977451171 4136.812597583537
1245.6586438809263 4061.1554388493846
1246.5031028679496 4027.64792363987
1247.3473544705157 4154.135625460881
1248.1913987468706 4063.422266819118
1249.0352357552383 4002.808375042431
1249.8788655538228 4040.9766641875517
1250.7222882007918 4083.07071738574
1251.565503754302 4028.504627087443
1252.4085122724755 4035.0636125600176
1253.2513138134182 4041.2940697377403
1254.0939084352049 4086.931840505443
1254.9362961958905 4047.505390320519
1255.7784771535007 4011.1697443252137
1256.6204513660432 4014.8335204944306
1257.4622188915 4092.302751408263
1258.3037797878242 4055.1908772426455
1259.1451341129468 3988.2804552041243
1259.9862819247755 4053.148256832153
1260.8272232811978 3982.7674554203995
1261.6679582400666 4094.1784827330657
1262.5084868592203 3972.346203581251
1263.34880919647 4026.02576550397
1264.1889253095997 4128.768574152111
1265.0288352563712 4046.1648798632145
1265.8685390945266 4026.51477555106
1266.7080368817751 4049.533827487097
1267.5473286758115 4080.5878735457945
1268.386414534294 4069.170427610405
1269.2252945148703 3954.541964544591
1270.0639686751547 4038.6278734213256
1270.9024370727402 4097.664200128013
1271.7406997651997 3982.984961193631
1272.5787568100714 3978.996773450176
1273.4166082648808 4055.766980341335
1274.2542541871244 3963.281743199032
1275.091694634275 3949.9030877139476
1275.9289296637817 4004.2778536527017
1276.7659593330663 3942.5943583464455
1277.6027836995308 3998.9653115898245
1278.4394028205552 3984.58455055882
1279.2758167534867 3940.471902171312
1280.112025555658 3979.5719036664277
1280.9480292843746 3948.3192376905527
1281.7838279969128 3948.0590457112276
1282.6194217505326 3858.8191039484664
1283.4548106024686 3870.634601917146
1284.289994609926 3926.3308181200455
1285.1249738300921 4029.955085049902
1285.959748320127 3837.620586066586
1286.7943181371702 3976.168974681839
1287.6286833383328 3993.294923093535
1288.4628439807038 3986.497359433025
1289.2968001213521 3873.8556002292075
1290.1305518173194 3981.1478275459617
1290.9640991256183 4003.666048588154
1291.7974421032523 3957.8666207051574
1292.630580807183 3997.005364942967
1293.463515294361 4029.2756573756997
1294.29624562171 4044.329043502216
1295.12877184613 3966.683962835993
1295.961094024493 4002.9172108241305
1296.79321221365 4083.182322194046
1297.6251264704333 4048.3650381550005
1298.4568368516466 4137.722059285299
1299.2883434140658 4069.7048801196165
1300.1196462144526 4132.497396066998
1300.9507453095375 4077.7958571801682
1301.7816407560313 4158.663503212598
1302.6123326106172 4221.306223222482
1303.4428209299622 4085.456397754817
1304.2731057707024 4153.138539498269
1305.1031871894502 4084.2642460108864
1305.933065242798 4175.466149348995
1306.7627399873181 4233.791530230986
1307.5922114795467 4248.637065833999
1308.4214797760123 4257.9144479826955
1309.2505449332057 4234.527802485829
1310.0794070076026 4325.8230482280305
1310.9080660556538 4233.976812188973
1311.736522133786 4165.466253290726
1312.5647752983987 4310.3506454687695
1313.3928256058734 4253.669458478386
1314.2206731125661 4251.719244870014
1315.048317874809 4263.338840535633
1315.8757599489109 4354.12963948771
1316.7029993911547 4377.468029552614
1317.5300362578055 4401.885033977069
1318.356870605101 4223.81179707023
1319.183502489257 4289.221547170351
1320.0099319664623 4286.004607827274
1320.836159092889 4352.786114634071
1321.66218392468 4323.51173401736
1322.4880065179532 4321.211347876897
1323.3136269288134 4305.823870429329
1324.1390452133292 4343.357736776779
1324.9642614275563 4356.093964322416
1325.7892756275214 4454.386144387412
1326.6140878692295 4293.922100928168
1327.4386982086617 4418.170937103938
1328.2631067017755 4389.829333449368
1329.0873134045069 4334.153389481583
1329.911318372764 4299.629143084892
1330.735121662441 4242.83026585391
1331.558723329399 4386.471458083268
1332.3821234294774 4264.734578706193
1333.2053220185007 4312.4377715127985
1334.0283191522612 4240.1173369028575
1334.851114886529 4231.368857445097
1335.6737092770582 4217.529606947224
1336.4961023795695 4207.357339716935
1337.3182942497697 4292.4320217493105
1338.1402849433325 4287.169570253772
1338.962074515921 4167.700778046548
1339.7836630231632 4113.08747304968
1340.6050505206676 4295.715217144202
1341.426237064028 4214.906409624143
1342.2472227088037 4101.4441710388755
1343.0680075105338 4117.564645378634
1343.888591524741 4125.93993763011
1344.7089748069138 4249.260161801996
1345.5291574125276 4166.015421337708
1346.3491393970307 4074.8528331594325
1347.168920815846 4193.714651647624
1347.9885017243778 4131.986777368107
1348.8078821780036 4127.810297359894
1349.6270622320844 4027.8617628902007
1350.4460419419447 4098.443754893657
1351.2648213629054 4101.372905469592
1352.0834005502438 4048.522525888607
1352.90177955923 4118.7393873480105
1353.7199584451064 4192.777763772834
1354.5379372630887 4212.171125686187
1355.355716068374 4072.2597258867804
1356.1732949161305 4152.552492497953
1356.9906738615155 4014.7324837856513
1357.8078529596478 4137.85070749207
1358.6248322656375 4132.788797479543
1359.441611834567 4008.092520276773
1360.2581917214866 4189.715056376508
1361.0745719814367 3980.755613768323
1361.890752669433 4006.2978679316634
1362.7067338404577 4013.8991578516993
1363.5225155494845 4092.663750110392
1364.3380978514506 4080.0643122035754
1365.1534808012839 3983.7801579563916
1365.9686644538815 3918.965386434434
1366.783648864117 4035.595745875032
1367.5984340868417 4161.844652815244
1368.413020176893 4100.914414289439
1369.2274071890715 3921.358956316622
1370.0415951781652 3995.3100993592025
1370.8555841989346 3807.1182379399543
1371.6693743061223 3910.0131489633545
1372.48296555444 3934.661325046936
1373.2963579985844 4083.3301580605817
1374.1095516932255 3907.642741195438
1374.9225466930166 3899.150350171209
1375.7353430525782 3859.7436537593776
1376.5479408265164 3864.096983347283
1377.36034006941 3961.413461517955
1378.1725408358216 3886.81626628084
1378.9845431802805 3983.237428582355
1379.796347157304 3981.8734409745134
1380.6079528213813 3957.4852104145493
1381.4193602269788 3836.6469059302917
1382.230569428546 3952.540143803605
1383.0415804805016 4017.6245119682003
1383.852393437246 3994.232851963882
1384.6630083531563 4010.5490508868706
1385.4734252825892 3892.550503484684
1386.2836442798798 4043.6692817697526
1387.0936653993322 3964.1665440391275
1387.9034886952395 3918.9412621701754
1388.713114221864 4025.399152014321
1389.5225420334482 3916.43679061168
1390.331772184214 3892.9785107917096
1391.1408047283585 3922.277246447126
1391.9496397200564 3897.055226797381
1392.758277213461 3948.382923522456
1393.5667172627054 3925.7278168929106
1394.3749599218918 3851.1333996288
1395.1830052451114 3819.090197884282
1395.9908532864265 3899.9258863803457
1396.7985040998774 3951.043183989179
1397.6059577394808 3831.829227638306
1398.4132142592352 3861.8828793354273
1399.2202737131156 3864.4414057684853
1400.027136155073 3873.129084677352
1400.8338016390353 3937.339975401263
1401.6402702189134 3826.888611464873
1402.446541948586 3818.1357704303255
1403.2526168819204 3741.926716812789
1404.058495072757 3832.7630847436058
1404.8641765749107 3721.1649367781174
1405.6696614421799 3782.6075858827317
1406.4749497283356 3881.7780684182408
1407.280041487129 3851.24491275074
1408.084936772295 3598.8409473933016
1408.8896356375335 3794.020815998775
1409.6941381365323 3781.6236787734974
1410.498444322955 3661.8903861360836
1411.3025542504402 3721.7516620733995
1412.106467972606 3734.635929569866
1412.9101855430508 3740.5008778785073
1413.7137070153458 3571.1026054262643
1414.5170324430437 3619.255483619397
1415.320161879672 3764.384996720519
1416.1230953787435 3720.045184452364
1416.925832993742 3599.885728522227
1417.7283747781275 3562.746991727539
1418.5307207853439 3638.753499734902
1419.3328710688093 3655.65389130936
1420.134825681922 3519.2670811286675
1420.9365846780584 3608.890974145744
1421.7381481105713 3737.705949393561
1422.539516032788 3616.0165653609247
1423.3406884980232 3546.504672751038
1424.1416655595604 3642.2417286528034
1424.942447270665 3534.330909577843
1425.7430336845828 3583.4388567310134
1426.5434248545298 3549.3911065302755
1427.3436208337116 3638.159527860184
1428.143621675301 3715.3005863622375
1428.9434274324558 3678.8608865920805
1429.7430381583108 3450.017996252842
1430.5424539059713 3549.0810805964175
1431.3416747285337 3812.4752561908945
1432.1407006790632 3586.5197701110505
1432.9395318106053 3658.527866679857
1433.7381681761835 3515.313787230647
1434.5366098288014 3564.1335815399652
1435.3348568214424 3595.4250694579996
1436.1329092070573 3597.825540588635
1436.9307670385879 3643.1688934041254
1437.7284303689503 3579.234229798716
1438.5258992510335 3694.975335997944
1439.3231737377118 3660.0725492461606
1440.1202538818306 3557.6156333621525
1440.9171397362225 3537.004626041225
1441.7138313536925 3581.3844494646555
1442.5103287870243 3420.1252321028114
1443.3066320889775 3435.4429340660477
1444.1027413122956 3665.018888188977
1444.8986565096966 3546.619048583486
1445.694377733882 3510.842662992674
1446.4899050375207 3476.535652577969
1447.2852384732687 3534.347548899828
1448.0803780937622 3388.786722155322
1448.8753239516063 3484.789839353952
1449.6700760993954 3332.8835800108536
1450.464634589689 3370.606774751559
1451.2589994750397 3539.0900225259393
1452.0531708079689 3455.8112326529154
1452.8471486409799 3431.2136992609376
1453.6409330265524 3425.5923684358604
1454.4345240171442 3404.904102286514
1455.2279216651987 3468.0116483694483
1456.0211260231263 3478.573063603451
1456.8141371433194 3387.860700473507
1457.6069550781594 3385.713295624008
1458.3995798799897 3420.722042401051
1459.1920116011424 3386.7524249667485
1459.98425029393 3262.1285590198377
1460.7762960106338 3342.441478611569
1461.5681488035225 3353.022192855038
1462.3598087248392 3321.04878256509
1463.1512758268036 3316.9248059605584
1463.942550161617 3234.6481306955907
1464.7336317814625 3229.226380373323
1465.524520738496 3310.1717833843045
1466.3152170848552 3266.8392687172877
1467.1057208726506 3306.4170489169746
1467.8960321539817 3197.4611985969923
1468.6861509809169 3157.883608302901
1469.4760774055085 3163.1887124102805
1470.265811479785 3334.682770650932
1471.055353255755 3099.483167595402
1471.844702785409 3317.7744067422573
1472.6338601207044 3178.4614458527385
1473.4228253135934 3289.103789481121
1474.2115984159936 3179.280548775612
1475.0001794798063 3110.6764821962415
1475.7885685569145 3173.880329174949
1476.576765699172 3277.918843827529
1477.3647709584238 3234.40252125765
1478.1525843864802 3213.16476639106
1478.9402060351367 3244.828316994387
1479.7276359561693 3227.384023452104
1480.514874201328 3145.9920443492238
1481.3019208223468 3206.088485303096
1482.0887758709323 3141.493293185738
1482.8754393987747 3170.7861998545886
1483.6619114575406 3136.270986193235
1484.4481920988783 3279.9002050399226
1485.2342813744108 3236.6938959977315
1486.0201793357446 3193.5376710741666
1486.8058860344572 3150.428228193906
1487.591401522117 3208.7758354639454
1488.3767258502594 3185.9538810783965
1489.1618590704056 3135.223370307942
1489.9468012340494 3074.938174658707
1490.7315523926754 3184.0386422700694
1491.5161125977356 3232.5412461308147
1492.3004819006637 3182.7861950687548
1493.084660352877 3175.203735461294
1493.8686480057622 3191.408095523992
1494.6524449106964 3240.99791039087
1495.4360511190262 3204.07058998696
1496.219466682087 3157.5465431842986
1497.0026916511779 3299.1981370097806
1497.7857260775945 3057.7420090186274
1498.5685700125996 3116.3300514948924
1499.3512235074395 3183.3777544906197
1500.133686613337 3199.6149764869488
1500.9159593814966 2996.580249816141
1501.698041863101 3331.315330033285
1502.4799341093094 3095.339974482067
1503.2616361712662 3109.0171365785855
1504.043148100087 3178.81266206648
1504.8244699468742 3273.574621885182
1505.6056017626997 3198.3191083632887
1506.3865435986281 3038.120506368402
1507.1672955056893 3158.8748014116404
1507.9478575348967 3150.7109669168944
1508.7282297372512 3088.7202665747045
1509.5084121637192 3163.879161929593
1510.2884048652577 3073.0229728861223
1511.0682078927948 3021.721302728577
1511.8478212972423 3050.101601838277
1512.6272451294917 3015.024660333149
1513.4064794404076 3155.750437716387
1514.1855242808433 3076.955256311522
1514.9643797016215 3124.995111465001
1515.743045753552 3117.68291875202
1516.5215224874191 3121.9893580966213
1517.2998099539836 3012.610328470537
1518.077908203999 3086.0586855034035
1518.8558172881785 3098.2735806359897
1519.633537257234 3138.165872109602
1520.4110681618404 2993.989162117993
1521.1884100526604 3225.3317997740432
1521.9655629803365 3157.5936643412806
1522.7425269954856 3147.2510823381317
1523.5193021487103 3187.05351801023
1524.2958884905856 3063.2781674091757
1525.0722860716687 3034.8978410667105
1525.848494942502 3251.2373296064775
1526.624515153595 3138.1105747589163
1527.4003467554485 3175.3278023277626
1528.175989798534 3169.536123982257
1528.9514443333064 3043.7295468906377
1529.726710410203 3263.1159398116843
1530.5017880796331 3073.6787039359388
1531.276677391992 3079.361571966875
1532.0513783976457 3163.3375037573414
1532.825891146953 3166.474291741736
1533.6002156902414 3276.39650111128
1534.3743520778207 3172.5967579784383
1535.1483003599806 3141.035807488334
1535.9220605869923 3004.34097594943
1536.6956328091019 3244.016108498988
1537.4690170765407 3170.724262833943
1538.242213439511 3184.9351833512796
1539.015221948208 3293.0099253202025
1539.78804265279 3033.0748836461657
1540.560675603405 3043.0752456307537
1541.3331208501804 3245.8201884035457
1542.1053784432224 3306.1445864942034
1542.8774484326168 3241.1650624644417
1543.649330868422 3175.968543227119
1544.4210258006842 3207.3288615516403
1545.1925332794308 3227.575727536511
1545.9638533546604 3133.1025784483627
1546.7349860763552 3098.1009732468888
1547.5059314944829 3147.74307174964
1548.27668965898 3209.552391131401
1549.0472606197673 3366.228734933862
1549.817644426752 3110.9768237235744
1550.5878411298072 3148.5068447334857
1551.3578507787988 3165.2863411970025
1552.1276734235635 3262.606607759045
1552.8973091139233 3222.793732690799
1553.6667578996767 3199.9349131897493
1554.436019830604 3285.553520418655
1555.20509495646 3423.676578832009
1555.9739833269869 3181.3609253519508
1556.7426849919011 3163.0218403965077
1557.511200000903 3364.089023137549
1558.2795284036674 3327.658536011618
1559.0476702498509 3273.298513382898
1559.8156255890954 3430.705204708071
1560.5833944710157 3397.3896791594007
1561.3509769452048 3275.336529118001
1562.1183730612447 3277.969172696817
1562.8855828686865 3221.094908844284
1563.6526064170703 3457.942770717963
1564.4194437559127 3376.0974979187004
1565.1860949347047 3190.1651785670983
1565.9525600029283 3357.765106849319
1566.7188390100328 3350.4092124565614
1567.4849320054564 3173.8775737959813
1568.250839038612 3326.158110895897
1569.0165601588997 3257.886885696623
1569.7820954156887 3315.7350910124196
1570.5474448583373 3255.943013896668
1571.31260853618 3174.090910970021
1572.0775864985299 3269.6274500196114
1572.8423787946813 3357.6241369026807
1573.6069854739108 3174.0531356718566
1574.371406585471 3341.829095942931
1575.1356421785986 3388.902149787814
1575.899692302506 3373.126645328731
1576.6635570063845 3333.1018324322204
1577.4272363394157 3235.63387289245
1578.190730350747 3225.656246033102
1578.9540390895163 3312.4551101422526
1579.7171626048384 3050.1964605129406
1580.480100945806 3199.776488740738
1581.2428541614918 3220.945203207389
1582.0054223009538 3188.876115252351
1582.767805413223 3239.9129270477133
1583.5300035473156 3247.5414612506515
1584.292016752228 3242.4816027914353
1585.0538450769309 3230.700153336193
1585.8154885703807 3235.208071480377
1586.5769472815136 3170.9437681554373
1587.3382212592405 3263.306557859453
1588.099310552463 3338.146600705078
1588.8602152100484 2871.0739624353014
1589.6209352808564 3291.906897383814
1590.3814708137234 3292.1097101169858
1591.14182185746 2751.1422312370364
1591.9019884608679 3283.2660414582774
1592.6619706727215 2996.998978328428
1593.4217685417734 3320.405243268837
1594.1813821167616 3300.0610112323347
1594.9408114464022 2966.3315439798635
1595.7000565793933 3207.73595041745
1596.459117564409 3161.490459746066
1597.2179944501113 3064.3341412925897
1597.9766872851324 3262.084440419659
1598.735196118092 3113.4854406056593
1599.4935209975883 3281.3943411479386
1600.2516619721973 3217.1150806742326
1601.0096190904787 3128.993166432382
1601.7673924009723 3254.574986653771
1602.524981952196 3103.9209037198375
1603.2823877926476 3172.3820531457222
1604.0396099708087 3198.189092229124
1604.7966485351371 3139.262510533526
1605.5535035340745 3120.088037598497
1606.3101750160404 3285.5157199312475
1607.0666630294363 3228.1569357342923
1607.822967622642 2941.5902979479843
1608.5790888440224 3020.0896761353492
1609.3350267419137 3213.525145256489
1610.0907813646445 3134.752853667606
1610.8463527605145 3207.6044303659273
1611.601740977805 3229.4881827126533
1612.356946064785 3259.3181912537443
1613.1119680696902 3068.133156443981
1613.8668070407512 3053.727990492529
1614.6214630261748 3190.160872616872
1615.375936074137 3067.9095717558
1616.1302262328118 3154.112825428717
1616.8843335503425 2994.0691539645622
1617.638258074854 3044.5389475932525
1618.391999854457 3116.4402909456653
1619.1455589372363 3156.1843424232766
1619.8989353712623 3178.647169329066
1620.65212920458 2954.186774285753
1621.4051404852235 3066.6916084866652
1622.1579692611976 2987.3885250487992
1622.9106155804966 3041.00487013759
1623.663079491087 3000.024282441495
1624.4153610409248 3092.704428069205
1625.1674602779385 2983.196702173634
1625.9193772500403 3021.353847821167
1626.6711120051277 3003.8264906868617
1627.4226645910676 3112.5063083856144
1628.174035055721 2868.6424920316813
1628.9252234469168 2948.9193376675566
1629.676229812474 2991.820003844724
1630.4270542001905 3326.557361012826
1631.1776966578382 3098.208269988301
1631.9281572331747 3057.98095312145
1632.678435973945 2994.11004162673
1633.4285329278573 3075.885810361304
1634.1784481426203 3032.582045980193
1634.9281816659113 3124.1256288409368
1635.677733545388 3091.6751467915583
1636.4271038286934 2982.7442801321554
1637.176292563452 3111.36912872975
1637.9252997972635 3070.1578653331535
1638.674125577716 3278.0706259395943
1639.4227699523672 3220.918426202585
1640.171232968767 3023.999706506275
1640.9195146744423 3152.6473445762654
1641.6676151168977 3189.4756007642472
1642.4155343436178 3055.7108713120306
1643.1632724020765 3201.4695729649384
1643.9108293397167 3149.4932072298284
1644.658205203974 3004.759148569873
1645.4054000422566 3353.1344435138553
1646.1524139019566 3129.8141492269856
1646.8992468304423 3214.5423770336483
1647.6458988750728 3224.047196414376
1648.3923700831765 3232.93627364307
1649.1386605020743 3213.002548112047
1649.8847701790564 3263.8062379055864
1650.6306991614038 3163.505236908553
1651.3764474963682 3229.4713655269975
1652.1220152311944 3108.079054070862
1652.867402413096 3324.3152100195134
1653.6126090892776 2967.893267508006
1654.3576353069184 3239.4879130924387
1655.1024811131829 3099.3972751107517
1655.8471465552066 3291.1101586030463
1656.5916316801213 3176.14264759255
1657.3359365350298 3208.986978482189
1658.0800611670165 3114.3542383226804
1658.824005623148 3078.4385303691392
1659.5677699504722 3041.186899505645
1660.3113541960192 3082.4484456106316
1661.054758406799 3262.1259777621517
1661.7979826297997 3108.3198444914146
1662.5410269119966 3063.795328719542
1663.283891300338 3100.0439416828895
1664.0265758417645 2983.813256411432
1664.7690805831826 3016.8839650555756
1665.5114055714948 3083.787731299178
1666.2535508535748 3080.536090287027
1666.9955164762814 2911.963538813988
1667.7373024864555 2932.1855663296783
1668.478908930916 3014.6525763753625
1669.220335856462 2716.3705459647717
1669.9615833098778 2868.803274054213
1670.7026513379296 2823.6820311811257
1671.44353998736 2824.063366872442
1672.1842493048916 2789.6695403992185
1672.9247793372379 2910.041184558334
1673.6651301310812 2854.0060467222374
1674.4053017330934 2746.733476411695
1675.1452941899242 2817.363596279121
1675.885107548207 2555.631385385939
1676.6247418545518 2659.9512625220736
1677.3641971555535 2688.421806448402
1678.1034734977893 2692.3805415968463
1678.8425709278108 2763.6386742768127
1679.5814894921605 2799.5992232923213
1680.320229237359 2607.4731195619943
1681.0587902098978 2800.6495127559306
1681.7971724562685 2729.0057913785668
1682.5353760229264 2698.277978787492
1683.2734009563173 2539.167749883303
1684.0112473028657 2526.3088989186404
1684.7489151089794 2537.305934990719
1685.4864044210462 2740.5288875527467
1686.2237152854377 2560.3214238635405
1686.960847748498 2578.9208567782575
1687.6978018565642 2525.288302803044
1688.434577655944 2474.5860403904653
1689.1711751929379 2566.039829277221
1689.9075945138156 2563.32895375655
1690.6438356648396 2530.0829272227606
1691.3798986922448 2274.1629315684086
1692.1157836422499 2531.5909716735673
1692.851490561059 2496.423070035961
1693.587019494853 2466.8364378266892
1694.3223704897991 2469.1218649035372
1695.0575435920364 2291.70118691919
1695.792538847696 2468.1332532180845
1696.527356302886 2443.7603595265086
1697.2619960036936 2392.2901209426864
1697.9964579961907 2359.084669616562
1698.730742326432 2093.9626521985197
1699.4648490404488 2230.5038856568017
1700.1987781842563 2332.8143636835534
1700.9325298038548 2407.4422104463533
1701.6661039452174 2377.341268456644
1702.3995006543082 2325.2679238153223
1703.1327199770658 2404.653114855691
1703.865761959416 2311.590794687071
1704.598626647261 2358.2248290753805
1705.3313140864866 2350.6003815942518
1706.0638243229587 2283.3846474414486
1706.7961574025303 2401.139610721393
1707.528313371029 2370.0241397137843
1708.260292274268 2225.0343577227345
1708.9920941580403 2322.821650187202
1709.7237190681226 2311.125094029863
1710.4551670502697 2358.4566054934485
1711.18643815022 2063.6331751710654
1711.9175324136959 2405.594437700852
1712.6484498863938 2146.7953984145734
1713.379190614005 2204.5378573498724
1714.109754642188 2431.018115341915
1714.8401420165883 2193.721333845505
1715.570352782839 2091.5051174185546
1716.3003869865497 2344.9215818651687
1717.0302446733076 2237.573307466875
1717.7599258886876 2194.11850616956
1718.4894306782444 2255.7556352275933
1719.2187590875183 2093.3971698365185
1719.9479111620203 2221.5055761036665
1720.6768869472544 2252.5679678554616
1721.4056864887025 2181.868035027081
1722.1343098318284 2222.7258215201186
1722.8627570220742 2104.649182772131
1723.591028104871 2104.2080198690664
1724.3191231256242 2079.657323589543
1725.0470421297232 2015.8481606353203
1725.7747851625427 2066.171652472044
1726.5023522694337 2122.4167258054076
1727.2297434957363 2213.2286806265643
1727.9569588867635 1872.9092816086854
1728.6839984878152 2122.6882139821237
1729.4108623441734 2052.1646132419164
1730.1375505011038 2196.1683174534387
1730.8640630038426 2054.308455779659
1731.5903998976264 2074.3404936147194
1732.316561227657 2251.3866279902054
1733.0425470391274 2010.6750212095067
1733.7683573772065 2144.358961062868
1734.4939922870508 2001.0794822296637
1735.2194518137949 2066.570596330577
1735.9447360025606 2127.530574215934
1736.669844898439 2061.9266846462833
1737.3947785465189 2017.3945040465194
1738.1195369918605 1932.1245365290426
1738.8441202795093 1932.919304111286
1739.5685284544943 2124.018581050238
1740.292761561821 2039.7122320852916
1741.0168196464838 2165.0457199983566
1741.7407027534518 2058.2915983092
1742.464410927687 1999.7276388034795
1743.187944214118 2057.773012021469
1743.9113026576688 1966.2838714859124
1744.634486303241 2032.3079816223108
1745.3574951957125 2110.1136529606274
1746.0803293799509 2000.3865536279682
1746.8029889008048 1896.7288501277515
1747.5254738031017 2055.9148923945254
1748.2477841316504 1858.0379842246007
1748.969919931249 1986.6340986431962
1749.6918812466665 1714.805804395286
1750.4136681226646 2122.257353578295
1751.1352806039777 2075.5960195403377
1751.856718735331 2006.3994609500362
1752.5779825614281 1959.6538831505027
1753.2990721269507 2126.715774437031
1754.0199874765676 2003.8003414490017
1754.7407286549314 1949.9357705316622
1755.4612957066693 1961.384755124951
1756.1816886763954 2007.0441660632696
1756.9019076087097 2124.470847477724
1757.6219525481865 2061.923300946543
1758.3418235393856 2027.2245195033497
1759.061520626854 2026.759940548655
1759.7810438551096 2001.085872525465
1760.5003932686614 1862.4552079232901
1761.2195689119999 2018.578266285795
1761.938570829594 1905.7958819959294
1762.657399065898 1993.9824575917464
1763.376053665348 1915.8746981994743
1764.0945346723602 1922.714146004798
1764.812842131334 1947.803668203193
1765.5309760866512 1845.5149989481786
1766.2489365826787 1914.9551872546715
1766.9667236637597 1965.6851288071896
1767.684337374223 1823.9370048974895
1768.401777758383 1749.1587305277815
1769.1190448605284 1947.2790210517455
1769.836138724937 1940.7259898424188
1770.5530593958665 1981.7851223175871
1771.2698069175603 1943.5434869739954
1771.9863813342326 2023.610990973193
1772.702782690094 2103.7557331585494
1773.4190110293293 1929.0515662096925
1774.1350663961111 2054.3971116495195
1774.8509488345844 1851.0504119697362
1775.5666583888924 1980.2101102856093
1776.2821951031437 1994.3927073843818
1776.9975590214362 1997.3563943584372
1777.7127501878585 2011.550698330034
1778.4277686464684 2002.6160364447678
1779.1426144413108 1980.1621565787013
1779.8572876164162 1852.7255907877454
1780.571788215797 1924.2743789607114
1781.2861162834415 1925.3340770182035
1782.0002718633277 1999.645106723949
1782.7142549994132 1892.1240833701777
1783.4280657356376 1924.5605001327963
1784.141704115922 1855.2977828915089
1784.855170184177 1823.7290127418248
1785.5684639842839 1922.070181296524
1786.2815855601148 1822.3864276660138
1786.9945349555237 2047.0002659224313
1787.707312214343 1818.5748940734397
1788.4199173803918 2003.2076105238582
1789.132350497468 1859.8319301437307
1789.8446116093583 1825.9598211662378
1790.556700759822 2013.2284504104105
1791.2686179926077 1680.2243149425515
1791.9803633514493 1964.7935651470714
1792.6919368800554 1858.5284960628815
1793.4033386221236 1934.8674719459154
1794.1145686213295 1826.6149014461257
1794.8256269213307 2054.364458966028
1795.536513565774 2018.8449120961366
1796.247228598284 1756.1365748817102
1796.9577720624693 1875.3255894010902
1797.6681440019165 1841.9214152643422
1798.3783444602013 1773.8530122644945
1799.0883734808776 1927.0126781785007
1799.7982311074884 1912.2691481542709
1800.5079173835475 1817.3959212597197
1801.2174323525633 1884.0050682888057
1801.9267760580187 1865.544103401992
1802.635948543386 1757.7162580771087
1803.3449498521113 1765.4580261682866
1804.0537800276325 1883.2228722643144
1804.7624391133668 1795.7926788056327
1805.47092715271 1729.8132800674546
1806.1792441890484 1834.5681339607352
1806.8873902657433 1854.8939112569383
1807.5953654261448 1799.749125493032
1808.3031697135812 1773.6284874435703
1809.0108031713662 1782.382024995209
1809.71826584279 1822.7218673389548
1810.425557771141 1738.1759064247108
1811.1326789996747 1890.831109699673
1811.839629571632 1836.0309418498098
1812.5464095302468 1759.3946389072767
1813.2530189187182 1938.7201665274897
1813.959457780249 1730.8964197213584
1814.6657261580076 1862.6971602753317
1815.371824095153 1706.4436458756913
1816.0777516348262 1809.1460678919946
1816.78350882015 1728.8991466688992
1817.4890956942272 1760.7246670907066
1818.1945123001533 1807.7042106012082
1818.8997586809928 1778.5667480779666
1819.6048348798067 1803.0252290798612
1820.3097409396287 1708.4360388382697
1821.0144769034796 1914.7941587816435
1821.7190428143622 1737.7714501888997
1822.423438715261 2024.7166103246013
1823.1276646491478 1880.1302165704292
1823.8317206589727 1792.479336951183
1824.5356067876692 1791.2531587084018
1825.2393230781581 1805.1093660455997
1825.942869573335 1788.6856766018354
1826.646246316086 1752.9179383645162
1827.3494533492758 1903.8370874766017
1828.052490715756 1815.1336351521677
1828.7553584583547 1766.8147273656061
1829.458056619891 1831.2959797497933
1830.1605852431585 1691.3059284364426
1830.8629443709433 1676.7787508088372
1831.5651340460063 1825.7791160118609
1832.2671543110919 1902.5203629849875
1832.9690052089318 1673.293642152889
1833.6706867822395 1779.8164902308624
1834.3721990737104 1964.3482797246834
1835.0735421260233 1837.5253987022872
1835.774715981841 1880.006988689575
1836.4757206838058 1862.0053266592822
1837.1765562745459 1708.7021198678935
1837.8772227966747 1656.5417917697382
1838.5777202927839 1774.1526271460505
1839.2780488054523 1784.2861549934719
1839.9782083772352 1829.820807451178
1840.6781990506806 1745.2116251261966
1841.378020868313 1776.9607878559466
1842.0776738726418 1835.1387138333218
1842.777158106157 1835.898962873133
1843.4764736113375 1757.1706174554322
1844.1756204306403 1702.5383784765436
1844.8745986065078 1710.2637533023367
1845.5734081813607 1660.1136029860584
1846.2720491976124 1573.0258559248575
1846.970521697649 1668.153847824021
1847.6688257238511 1772.361226008464
1848.3669613185684 1839.9490770467014
1849.0649285241452 1695.0730240772245
1849.7627273829057 1754.9224490257493
1850.460357937156 1887.2840866746556
1851.1578202291857 1546.9167725393654
1851.8551143012664 1765.112056272042
1852.5522401956569 1860.4630321039363
1853.2491979545957 1911.428513200922
1853.9459876203055 1614.826324360502
1854.6426092349902 1633.6438584253006
1855.3390628408451 1753.5730789771364
1856.0353484800362 1795.3135308838748
1856.7314661947203 1790.6077551633225
1857.4274160270397 1707.3216924283947
1858.123198019115 1640.35991808594
1858.8188122130487 1750.703889211142
1859.5142586509319 1774.598904564658
1860.209537374838 1878.2620902066396
1860.9046484268183 1738.3113156748066
1861.599591848917 1698.825097566325
1862.294367683151 1640.1469396410023
1862.988975971528 1748.2738358922427
1863.6834167560355 1735.605081634493
1864.3776900786452 1881.3572003286906
1865.0717959813119 1723.2523367975468
1865.7657345059724 1792.5000159799158
1866.4595056945564 1840.0804671748388
1867.1531095889586 1762.929552444312
1867.846546231076 1820.2997884531767
1868.5398156627743 1824.467616669535
1869.2329179259123 1861.930672346435
1869.9258530623283 1803.9555572412016
1870.618621113843 1808.9804592221371
1871.3112221222636 1598.9448649157607
1872.0036561293764 1635.3245846512787
1872.695923176956 1848.3929797980393
1873.3880233067594 1821.6290288300843
1874.0799565605212 1600.2907872491162
1874.7717229799673 1633.236323571969
1875.4633226068036 1750.9025488548468
1876.1547554827175 1652.6115226174043
1876.8460216493859 1557.7017892684946
1877.5371211484617 1700.3797414305416
1878.2280540215852 1814.0868663110837
1878.9188203103804 1603.9584335754585
1879.6094200564548 1767.3363324817747
1880.299853301396 1596.6980008258358
1880.9901200867826 1806.4149843536175
1881.6802204541673 1671.0236316099258
1882.3701544450942 1717.5633836083077
1883.059922101087 1723.240103397493
1883.7495234636517 1724.4466690383656
1884.4389585742792 1715.8311839631267
1885.1282274744517 1693.8154924598377
1885.8173302056166 1936.5762735680844
1886.506266809225 1618.4508225686482
1887.195037326701 1634.7294704789913
1887.8836417994517 1783.2915673250154
1888.5720802688702 1825.7075738387307
1889.260352776333 1562.2166629811625
1889.9484593632042 1679.8298522249981
1890.63640007082 1767.1938912956866
1891.3241749405151 1630.5054972618805
1892.0117840135954 1716.2312462062673
1892.6992273313572 1676.3369585865435
1893.3865049350788 1654.3471953491394
1894.0736168660223 1823.0576818448503
1894.7605631654333 1638.9522929831005
1895.4473438745408 1748.2869657229699
1896.133959034556 1773.8143022450622
1896.820408686679 1669.3468356391186
1897.506692872088 1836.4730504249867
1898.192811631945 1808.61785390808
1898.8787650073991 1803.349020505321
1899.5645530395832 2007.0774528578575
1900.2501757696118 1772.1886993146734
1900.9356332385796 1682.9261199333166
1901.620925487574 1745.049141621451
1902.3060525576602 1821.9342732998666
1902.9910144898859 1854.587397309367
1903.6758113252872 1612.8413175485318
1904.3604431048789 1890.3567244882183
1905.0449098696663 1649.1570540304863
1905.7292116606295 1752.2385145383255
1906.4133485187394 1693.9064857986061
1907.0973204849488 1537.598501864394
1907.7811276001976 1694.8201162809487
1908.4647699053967 1709.4016712066762
1909.1482474414588 1568.0491723062519
1909.8315602492694 1325.3773943843153
1910.5147083696957 1721.6059871749353
1911.1976918436012 1730.4050817681618
1911.880510711815 1735.4505948015515
1912.5631650151681 1581.1162110425084
1913.2456547944657 1819.0949331455126
1913.927980090495 1670.0607044530911
1914.6101409440362 1797.6754095342046
1915.2921373958416 1619.80314684629
1915.9739694866603 1667.204516015349
1916.655637257214 1809.9676858220694
1917.3371407482136 1658.6175606734528
1918.0184800003572 1782.1350412098832
1918.6996550543154 1641.6035411879197
1919.3806659507554 1778.1563903522158
1920.0615127303208 1855.3917001131315
1920.7421954336423 1735.736756694443
1921.4227141013343 1702.299385872407
1922.103068773993 1741.3161606085996
1922.783259492202 1719.9319378765165
1923.4632862965227 1545.0086227905183
1924.1431492275078 1572.0521291120526
1924.8228483256917 1741.8049715396003
1925.5023836315922 1765.4550452989522
1926.1817551857057 1496.1335592411301
1926.8609630285227 1700.9830615136045
1927.5400072005123 1773.4854925933716
1928.218887742125 1486.8746865404123
1928.8976046938005 1552.9457163885143
1929.5761580959588 1831.161788152948
1930.2545479890086 1615.4120451047481
1930.9327744133352 1606.0030473556194
1931.6108374093164 1863.8220075700592
1932.2887370173066 1636.184153042666
1932.9664732776473 1521.1435998222
1933.6440462306673 1749.4552241516872
1934.3214559166754 1581.2286668617342
1934.9987023759659 1634.9426026763954
1935.675785648813 1642.3279903387636
1936.3527057754836 1437.3396286474847
1937.029462796223 1716.9532976843232
1937.70605675126 1715.9521467982602
1938.3824876808085 1833.8952568390655
1939.058755625072 1480.7564156501699
1939.7348606242267 1706.4955254252843
1940.4108027184448 1651.1939248926278
1941.0865819478713 1875.7479554062677
1941.7621983526478 1498.100140553422
1942.4376519728921 1533.328889451835
1943.1129428487038 1468.8909796796665
1943.7880710201734 1604.8956574333029
1944.4630365273733 1764.2127691259097
1945.1378394103576 1565.0063900528241
1945.8124797091714 1673.4682091577506
1946.4869574638324 1399.4408753360262
1947.161272714353 1616.870818978313
1947.8354255007234 1683.0605357447216
1948.5094158629272 1677.8187352844766
1949.1832438409183 1763.4883069309185
1949.8569094746435 1670.1794980816005
1950.530412804037 1844.1762040077742
1951.2037538690092 1842.9108960386407
1951.8769327094578 1658.1300954362189
1952.5499493652678 1678.9790579655742
1953.222803876306 1625.8860362862295
1953.895496282421 1655.356435933601
1954.5680266234522 1482.2123655833225
1955.2403949392155 1732.6944326969756
1955.9126012695142 1580.703980907038
1956.5846456541403 1588.5371354256938
1957.2565281328643 1435.2896501281048
1957.9282487454457 1621.9119275183643
1958.5998075316202 1908.5985259508875
1959.27120453112 1750.5528679999832
1959.9424397836501 1708.8552172274817
1960.613513328908 1771.005457888105
1961.2844252065697 1785.1777896139417
1961.9551754563017 1723.7334731367894
1962.6257641177453 1472.5241905431099
1963.29619123054 1704.5481889613027
1963.966456834296 1488.235586650757
1964.6365609686181 1475.3415072487787
1965.306503673086 1628.8136137600973
1965.976284987275 1700.6280717109344
1966.645904950734 1681.7726418632433
1967.315363603002 1678.621229033694
1967.9846609836077 1683.2823830180155
1968.6537971320486 1679.9682204956694
1969.3227720878222 1554.13837750844
1969.9915858904042 1486.4745139412207
1970.660238579252 1663.835125700699
1971.3287301938108 1636.818015118108
1971.997060773514 1439.835973635757
1972.665230357772 1669.3061103023658
1973.3332389859843 1479.4016859815158
1974.0010866975335 1570.8024727396244
1974.6687735317864 1729.8870274434146
1975.3362995280932 1773.089162973293
1976.003664725793 1619.5487550811126
1976.6708691642052 1426.8717217665337
1977.3379128826364 1569.136438062053
1978.004795920373 1630.8328681290932
1978.6715183166925 1876.8392860912431
1979.3380801108524 1541.9867678435692
1980.0044813420973 1626.6903386358258
1980.6707220496555 1596.8175497957056
1981.3368022727373 1601.9826470472017
1982.0027220505417 1703.2500463909425
1982.66848142225 1464.656177986934
1983.3340804270283 1547.1789763091906
1983.999519104027 1614.8870497433443
1984.6647974923835 1841.2999561657805
1985.329915631215 1710.5569865918892
1985.99487355963 1670.9987693302064
1986.6596713167146 1629.2792403809103
1987.3243089415428 1733.4697608711135
1987.9887864731754 1750.0865280114315
1988.6531039506553 1595.1758082185108
1989.3172614130071 1802.552341806958
1989.9812588992481 1806.14412653922
1990.645096448372 1708.6087030558258
1991.3087740993633 1624.0901107397021
1991.9722918911848 1570.857077900067
1992.635649862792 1603.7712298989923
1993.2988480531185 1684.5041678497068
1993.9618865010852 1701.4164106134624
1994.6247652455968 1583.1153395363342
1995.287484325545 1441.2176499546827
1995.9500437798033 1480.077045563001
1996.6124436472292 1519.0855973795742
1997.2746839666706 1577.1310844438224
1997.936764776954 1785.7712845603935
1998.598686116895 1625.002360846515
1999.2604480252903 1680.2636342874891
1999.9220505409212 1470.6185114317777
2000.5834937025593 1463.9932380944722
2001.2447775489582 1667.2072400532772
2001.9059021188514 1568.853699418518
2002.5668674509616 1566.0717606086919
2003.2276735839987 1631.253541996181
2003.8883205566508 1694.36529446479
2004.5488084075987 1605.6201311419122
2005.2091371755014 1528.1399207955787
2005.8693068990033 1573.74804091717
2006.5293176167397 1710.6744281061951
2007.1891693673224 1480.0362534753774
2007.848862189354 1395.3854360636121
2008.5083961214223 1681.4703902960894
2009.1677712020955 1543.0272706946735
2009.8269874699254 1435.5913517573827
2010.4860449634598 1615.6814895742925
2011.1449437212177 1447.7050135891786
2011.8036837817108 1584.5656054205488
2012.4622651834325 1668.511453414661
2013.1206879648653 1827.2054430674084
2013.7789521644736 1735.4876750724166
2014.4370578207036 1438.4498280063322
2015.0950049719922 1565.957358596213
2015.7527936567585 1687.481159381568
2016.4104239134067 1623.406310566608
2017.067895780323 1754.776263219408
2017.725209295886 1469.1202892409785
2018.3823644984514 1764.9666256872017
2019.0393614263648 1668.5911172039785
2019.6962001179545 1497.4800913939866
2020.3528806115355 1651.8029053367559
2021.0094029454067 1304.2401877077307
2021.6657671578487 1560.2084980898392
2022.321973287133 1643.6923360243977
2022.9780213715148 1653.5896206069797
2023.6339114492293 1527.3833175281213
2024.2896435585026 1610.373565678895
2024.9452177375442 1472.0371163343425
2025.600634024544 1699.7948826330783
2026.2558924576842 1651.9470686982236
2026.9109930751292 1672.0981854193535
2027.565935915025 1515.709501778532
2028.2207210155066 1696.3012094643382
2028.8753484146964 1704.6062306394626
2029.529818150695 1459.1422418963302
2030.1841302615903 1466.919315919375
2030.8382847854573 1472.4108487129017
2031.4922817603601 1344.308264635375
2032.1461212243357 1688.8649184367464
2032.7998032154192 1483.5781277285294
2033.4533277716218 1679.4128817664655
2034.1066949309443 1511.769111466315
2034.7599047313688 1763.7576182696769
2035.4129572108704 1855.3745183077888
2036.0658524074006 1796.2006319093284
2036.7185903589016 1442.6753850875016
2037.3711711032956 1657.8412928280013
2038.023594678496 1538.9738252963857
2038.675861122394 1477.5039613729436
2039.3279704728757 1520.053540057422
2039.9799227678031 1279.2788780004398
2040.6317180450278 1550.3811512357902
2041.2833563423865 1522.3913227621617
2041.9348376977014 1567.7006868557803
2042.5861621487784 1399.3108548403018
2043.2373297334088 1697.4223433380987
2043.8883404893695 1611.1138319421202
2044.5391944544208 1692.0024384364121
2045.1898916663158 1460.9856898942944
2045.8404321627804 1731.7619132941484
2046.4908159815368 1511.3087292216005
2047.1410431602853 1610.8284261152965
2047.7911137367173 1628.534084235669
2048.441027748504 1646.1736874044213
2049.090785233302 1584.1111558992488
2049.7403862287592 1581.4519159794354
2050.389830772503 1415.9758497875662
2051.0391189021466 1250.3840498961822
2051.688250655294 1339.8559028933437
2052.337226069527 1598.2328712789642
2052.986045182417 1540.792471189338
2053.634708031521 1397.7891099788758
2054.283214654375 1572.5599722084287
2054.931565088511 1566.03266116863
2055.579759371436 1559.4943532722903
2056.2277975406523 1494.0966863468436
2056.8756796336384 1619.6123600999317
2057.5234056878617 1350.1076825172609
2058.1709757407752 1630.4104694438192
2058.8183898298194 1373.832556794807
2059.465647992416 1584.8461998493165
2060.1127502659747 1531.8125427412335
2060.759696687888 1389.1922776490915
2061.4064872955405 1729.3382564667208
2062.053122126292 1651.3931048600468
2062.699601217497 1377.3865655393686
2063.345924606485 1627.2537004224655
2063.992092330587 1690.1931109104985
2064.638104427102 1547.8456930071445
2065.283960933324 1672.2203802401655
2065.92966188653 1546.8509533600247
2066.5752073239855 1479.337667770718
2067.2205972829397 1476.5709091364902
2067.86583180062 1505.6548798413814
2068.5109109142522 1667.9020621632912
2069.15583466104 1649.3258477562588
2069.8006030781708 1630.7340251168039
2070.445216202821 1508.4360904369557
2071.089674072153 1649.323821566472
2071.7339767233116 1546.2971082280567
2072.3781241934303 1458.0202590184906
2073.0221165196253 1676.7453593712446
2073.6659537390024 1681.040711421217
2074.3096358886505 1709.4017021366442
2074.953163005637 1439.4414760542927
2075.596535127028 1396.863212702264
2076.2397522898664 1448.1301182884847
2076.882814531182 1567.0560943230516
2077.5257218879924 1679.2537695087126
2078.1684743973 1517.4428706919375
2078.8110720960885 1349.6668370086848
2079.453515021336 1659.4005091756521
2080.095803209997 1476.4951157908363
2080.7379366990135 1495.6844118974018
2081.37991552532 1460.7914461557236
2082.0217397258275 1524.81866254195
2082.6634093374414 1383.9720706907794
2083.3049243970418 1490.730956383832
2083.9462849415067 1485.8940665764528
2084.587491007689 1459.2499808286377
2085.2285426324324 1667.0452370482767
2085.869439852564 1571.3807426706867
2086.510182704902 1563.494220049338
2087.1507712262483 1555.5997491794908
2087.791205453381 1492.0544741295666
2088.4314854230743 1596.4881715847025
2089.0716111720867 1580.3901357028617
2089.7115827371617 1449.3054815730602
2090.351400155023 1406.9676194445071
2090.991063462385 1364.6259328585588
2091.6305726959527 1545.295235358381
2092.2699278924047 1475.765352002309
2092.9091290884153 1406.1474717181932
2093.548176320641 1433.3774401906983
2094.187069625721 1705.1123101245114
2094.8258090402887 1529.018729349236
2095.464394600951 1486.1601239231695
2096.102826344313 1697.8382440332953
2096.741104306955 1479.4670014453436
2097.379228525453 1643.405090799104
2098.017199036358 1398.5845257564301
2098.6550158762147 1666.4952429726811
2099.2926790815527 1538.527723357532
2099.9301886888825 1518.9252213036177
2100.5675447347076 1623.4158385997957
2101.2047472555114 1709.178986347435
2101.841796287761 1481.115464215877
2102.47869186792 1653.5135624063503
2103.1154340324265 1478.3632179156803
2103.752022817709 1540.602412790865
2104.388458260184 1645.832160750284
2105.024740396251 1583.3221507129554
2105.660869262292 1415.730562042388
2106.296844894685 1558.2548939155408
2106.93266732978 1609.0917270076784
2107.5683366039284 1301.0052189394587
2108.2038527534532 1342.1400095681254
2108.8392158146726 1695.3751900601826
2109.4744258238843 1687.9038372859704
2110.1094828173755 1750.2076697508262
2110.744386831422 1812.701338589369
2111.3791379022787 1571.4541518954925
2112.01373606619 1706.3825161200518
2112.648181359389 1542.96800295379
2113.28247381809 1610.3671010960077
2113.916613478492 1482.683714704151
2114.550600376786 1628.942543409469
2115.1844345491445 1563.9979617028825
2115.818116031729 1528.012009513121
2116.451644860679 1663.5818771750048
2117.085021072133 1578.6793750955999
2117.718244702204 1269.002445505002
2118.3513157869984 1472.884073737481
2118.984234362604 1433.79558803841
2119.617000465092 1562.1897503488292
2120.249614130529 1538.9331113372182
2120.8820753949585 1497.2626604286534
2121.5143842944162 1554.9073001650847
2122.14654086492 1505.9691583745894
2122.7785451424734 1556.6053982919634
2123.4103971630702 1621.057094546204
2124.042096962681 1685.8369851087016
2124.6736445772767 1421.6939881075207
2125.305040042802 1327.3161547265804
2125.936283395191 1462.6605060655234
2126.567374670365 1437.3397410086702
2127.198313904233 1587.8464683720974
2127.8291011326855 1685.1545221001957
2128.4597363916037 1372.5430024575837
2129.0902197168507 1452.070188054665
2129.720551144279 1266.5686894800324
2130.3507307097225 1520.2264509628587
2130.980758449008 1589.7284373092364
2131.6106343979427 1351.3048483121975
2132.2403585923203 1584.0345953613717
2132.8699310679276 1503.7110553519808
2133.499351860526 1478.2186567737604
2134.1286210058715 1568.876909545938
2134.7577385397053 1407.2076292015693
2135.3867044977487 1371.7313335766319
2136.0155189157176 1432.020348803929
2136.644181829308 1492.4821167349676
2137.2726932742025 1227.9458457567266
2137.901053286074 1541.201251646947
2138.5292619005777 1472.2175407181583
2139.1573191533535 1571.497772499246
2139.7852250800315 1591.774872926415
2140.4129797162295 1529.0557542500821
2141.0405830975433 1415.8556259233187
2141.6680352595613 1732.434307441124
2142.2953362378576 1513.2290363711165
2142.9224860679915 1456.5877767400636
2143.549484785508 1437.7791696793693
2144.1763324259373 1669.5604297544542
2144.803029024799 1557.1053659440997
2145.429574617594 1356.8619199116065
2146.0559692398165 1363.6977972386853
2146.682212926942 1370.4324324498248
2147.308305714432 1394.2267160422978
2147.9342476377333 1582.0300450507475
2148.5600387322847 1400.9817698797888
2149.185679033506 1471.8611123364976
2149.8111685768017 1534.0018046928622
2150.4365073975678 1407.651441719948
2151.061695531187 1526.2830536155893
2151.686733013021 1526.4749868298036
2152.311619878423 1517.8164301752565
2152.9363561627342 1478.4375896596696
2153.560941901278 1313.3449730833786
2154.1853771293663 1368.4206885987533
2154.809661882293 1639.0701580037862
2155.433796195348 1557.9581528864546
2156.0577801037944 1602.4962447298753
2156.681613642895 1398.7737872489781
2157.3052968478896 1561.366327229482
2157.928829754006 1453.8589985261785
2158.552212396462 1487.9074130532458
2159.1754448104566 1372.7073869093413
2159.7985270311783 1307.7745075058792
2160.4214590938027 1195.1877679366385
2161.0442410334927 1349.6668300431463
2161.6668728853874 1447.6811503724816
2162.289354684628 1355.9126272474223
2162.911686466332 1512.4118985451391
2163.533868265602 1476.2134108452412
2164.1559001175337 1463.226651831295
2164.7777820572046 1555.2263825484604
2165.399514119681 1404.5594181863485
2166.021096340013 1490.7447436220095
2166.6425287532384 1577.0957863342344
2167.263811394385 1499.060814014594
2167.8849442984574 1410.588793076509
2168.505927500455 1319.4792701495348
2169.126761035366 1493.3135694785574
2169.7474449381552 1420.6804669813623
2170.367979243778 1393.770629475915
2170.9883639871823 1512.3216298821624
2171.608599203293 1452.7282689912827
2172.2286849270276 1701.7771177167906
2172.8486211932886 1634.298492208185
2173.4684080369625 1382.1112105758507
2174.0880454929265 1509.1864610259977
2174.7075335960417 1684.1074872562021
2175.3268723811543 1503.6919290744822
2175.9460618831 1645.9625591629149
2176.565102136701 1414.713505777871
2177.1839931767627 1404.621019780377
2177.802735038078 1394.5220351822954
2178.421327755432 1383.0619319190002
2179.0397713635866 1431.5286620059194
2179.658065897298 1509.431086600048
2180.276211391305 1568.7457605005548
2180.8942078803357 1407.3713430002522
2181.5120553991 1340.6609393199833
2182.129753982299 1466.8573561506118
2182.7473036646206 1577.2338728920909
2183.3647044807367 1509.15683657476
2183.9819564653044 1323.917362331722
2184.599059652968 1704.0906750245988
2185.216014078367 1656.2887331531838
2185.832819776113 1569.1681810018017
2186.4494767808137 1481.7510458036145
2187.065985127063 1469.8061617838869
2187.682344849436 1385.8896642585394
2188.298555982501 1529.5057391974492
2188.9146185608097 1639.3429752798154
2189.530532618901 1654.2436826545004
2190.1462981912937 1380.9957057081845
2190.761915312507 1559.0185168328856
2191.377384017036 1383.3787677050434
2191.9927043393654 1424.192504812074
2192.6078763139667 1248.2224133484895
2193.2228999753006 1205.0882072171134
2193.837775357808 1161.887949634847
2194.452502495922 1342.3379329196046
2195.0670814240602 1417.6744412228866
2195.6815121766285 1479.4390582019976
2196.2957947880186 1703.286249483305
2196.9099292926057 1394.4916617401782
2197.523915724758 1631.1162880922363
2198.137754118825 1536.469182055866
2198.7514445091456 1483.7176936706232
2199.3649869300443 1430.9096511561677
2199.9783814158327 1572.1501663697145
2200.5916280008096 1800.928040192325
2201.2047267192593 1576.0342790381915
2201.8176776054515 1492.0440618800471
2202.430480693649 1488.3916862440503
2203.0431360180955 1529.2404269576446
2203.6556436130195 1486.7050197506617
2204.268003512645 1335.372846580566
2204.8802157511727 1588.5125763749043
2205.492280362796 1583.8169060406572
2206.1041973816937 1425.1429103590194
2206.715966842032 1380.9672560222198
2207.3275887779655 1442.601661718349
2207.93906322363 1504.262450983401
2208.550390213153 1386.394238805006
2209.1615697806465 1290.5748574053678
2209.7726019602105 1090.0211752300152
2210.3834867859277 1241.776472561219
2210.9942242918787 1578.5234017541998
2211.6048145121167 1399.8440383629068
2212.2152574806914 1400.4256601227455
2212.825553231638 1401.0250323707162
2213.435701798975 1654.9177022341541
2214.045703216707 1386.9911324513675
2214.655557518832 1301.6141563886763
2215.2652647393297 1284.3465103812653
2215.874824912169 1319.740886643045
2216.4842380713 1487.5043307745107
2217.09350425067 1443.8206918802273
2217.7026234842033 1310.3387285083436
2218.311595805819 1475.9964934035613
2218.9204212494133 1369.2588151511843
2219.52909984888 1706.7565642050515
2220.137631638092 1663.4977506382334
2220.7460166509154 1620.0439181379297
2221.354254921198 1557.0713755684164
2221.9623464827764 1658.9866667122901
2222.5702913694713 1449.3562741617711
2223.178089615096 1242.2159478935705
2223.7857412534486 1352.751897827759
2224.39324631831 1467.805829280735
2225.000604843457 1343.6909080225253
2225.607816862641 1523.785611776257
2226.214882409611 1576.9994375382528
2226.8218015180973 1507.3394041828835
2227.4285742218217 1255.239739040091
2228.0352005544864 1478.8403230670388
2228.6416805497847 1417.393712047129
2229.248014241399 1431.176290944744
2229.8542016629945 1211.6204848096086
2230.460242848223 1529.8775475293285
2231.0661378307304 1391.4605396154593
2231.671886644139 1546.2074837080468
2232.277489322065 1430.9491173368747
2232.8829458981127 1405.6970888630644
2233.48825640587 1570.9858450087813
2234.0934208789095 1515.2413305058542
2234.6984393507955 1570.1519441979674
2235.3033118550793 1728.6705077262118
2235.9080384252975 1692.007801981274
2236.5126190949723 1262.6593224359624
2237.1170538976166 1228.6043121049538
2237.721342866729 1353.1625435901817
2238.32548603579 1477.9266591544567
2238.9294834382763 1559.6718594297827
2239.533335107646 1511.8090118046673
2240.1370410773434 1463.8545337544392
2240.740601380803 1357.8327549358332
2241.3440160514474 1432.367881455794
2241.9472851226783 1514.4001719526552
2242.550408627896 1165.4146600829886
2243.1533866004793 1341.669295928463
2243.756219073799 1338.405899642162
2244.3589060812064 1335.1537387521726
2244.961447656049 1315.6741117987792
2245.5638438316564 1476.5156493887787
2246.166094641343 1628.8198329660095
2246.7682001184166 1514.8915387801587
2247.3701602961664 1446.7169844413006
2247.971975207871 1598.0187567625594
2248.5736448867974 1470.3499878657844
2249.175169366197 1596.5991613231238
2249.7765486793123 1413.4854689935173
2250.3777828593684 1404.2013769633577
2250.9788719395783 1512.5410182242051
2251.579815953146 1491.2064319635522
2252.1806149332606 1390.6867003324328
2252.781268913097 1406.470850559419
2253.381777925817 1196.655726303158
2253.9821420045737 1331.929375209681
2254.5823611825035 1564.627500719435
2255.1824354927303 1389.0067244095735
2255.782364968365 1347.2558663552247
2256.38214964251 1305.4892017474833
2256.9817895482483 1441.4636861368526
2257.5812847186553 1628.7354963779617
2258.180635186791 1452.7691559273483
2258.779840985704 1475.0500105033248
2259.37890214843 1410.115993170189
2259.97781870799 1583.0955138248537
2260.5765906973957 1457.8691631719637
2261.175218149645 1445.5918276490888
2261.773701097718 1352.4624515615592
2262.3720395745895 1259.1360881570004
2262.970233613216 1205.7018532951013
2263.568283246548 1317.1722240666531
2264.1661885075137 1565.12820681407
2264.763949429038 1387.315576251171
2265.3615660440246 1289.649775418275
2265.959038385374 1594.2314728527997
2266.5563664859637 1461.6695387946952
2267.153550378669 1360.91327018852
2267.7505900963424 1500.5530387010974
2268.3474856718312 1418.135653227962
2268.9442371379664 1454.5939582158194
2269.5408445275643 1163.0238001917874
2270.1373078734377 1439.303558415081
2270.7336272083758 1414.8336686691232
2271.32980256516 1423.9876532310886
2271.925833976562 1387.1386998965402
2272.5217214753357 1499.0192487477148
2273.117465094223 1515.8666669565705
2273.7130648659586 1468.1567565864827
2274.308520823257 1452.6628351595987
2274.903832998827 1551.1268860926161
2275.4990014253563 1568.8179381643454
2276.094026135528 1586.513519434663
2276.6889071620117 1220.3025136545605
2277.2836445374614 1515.1356316627384
2277.878238294519 1310.5673736892772
2278.472688465812 1492.7667969391805
2279.066995083962 1368.3393629581271
2279.6611581815705 1411.2133036338155
2280.255177791232 1549.628305714595
2280.8490539455233 1688.3225687691597
2281.442786677013 1657.1179543560763
2282.0363760182554 1657.0917366437413
2282.6298220017943 1348.776638196608
2283.223124660155 1440.6373120914805
2283.816284025859 1404.7754557674643
2284.4093001314086 1492.34915520184
2285.002173009292 1515.2274186125346
2285.5949026919952 1538.1576116985177
2286.1874892119777 1417.6105081618289
2286.7799326016993 1455.2995137711425
2287.3722328936 1268.2307163512346
2287.964390120109 1344.9907974116131
2288.556404313642 1459.5899169917006
2289.1482755066027 1484.4677546330354
2289.7400037313873 1495.1272060820397
2290.3315890203703 1278.4711954863749
2290.9230314059205 1463.526073065939
2291.5143309203904 1326.3942262653193
2292.1054875961236 1314.8950328014757
2292.6965014654506 1457.0914790918237
2293.287372560684 1487.0823408866065
2293.878100914131 1614.0291966656343
2294.468686558086 1469.6028391271382
2295.059129524827 1407.5989896277329
2295.649429846617 1644.8102672180746
2296.239587555716 1731.052153635918
2296.8296026843636 1632.2833473898108
2297.419475264791 1835.1019300561559
2298.0092053292137 1696.0723534955941
2298.598792909839 1340.6937668970932
2299.1882380388597 1319.311587635478
2299.777540748455 1738.4571373245058
2300.3667010707904 1507.0817457338508
2300.9557190380256 1496.7340911667627
2301.544594682302 1486.313869179695
2302.1333280357503 1450.1625225626462
2302.721919130485 1635.754508774422
2303.3103679986198 1580.4733001012296
2303.898674672242 1544.5780471385315
2304.486839183437 1539.408536016185
2305.0748615642697 1560.2032470854958
2305.6627418468015 1478.7300925428349
2306.2504800630704 1397.1826832792153
2306.8380762451143 1558.882272402166
2307.425530424949 1613.2948429770847
2308.012842634582 1667.8197370999283
2308.6000129060103 1611.2958840745544
2309.187041271214 1678.1179026667942
2309.773927762164 1471.8726961683503
2310.3606724108213 1634.833157144522
2310.9472752491274 1341.7141659617632
2311.5337363090184 1279.7077099675046
2312.120055622414 1488.8744955757772
2312.706233221221 1255.0797566181911
2313.2922691373424 1189.4553502623191
2313.8781634026564 1566.5952543251267
2314.463916049037 1494.5840808655755
2315.049527108342 1414.1532073121093
2315.6349966124235 1468.5092031037534
2316.2203245931123 1362.2502742245165
2316.8055110822315 1612.1586921189441
2317.3905561115935 1476.8434281767013
2317.9754597129977 1337.9063166969977
2318.560221918229 1273.1781639891756
2319.1448427590603 1347.5742906873159
2319.729322267256 1501.0282434050935
2320.313660474563 1330.0724265842887
2320.8978574127195 1562.2379701799896
2321.481913113452 1372.7448283464116
2322.0658276084705 1141.0778065917007
2322.6496009294806 1405.0026058880073
2323.233233108165 1713.1863241596238
2323.8167241762058 1646.9013908220772
2324.4000741652617 1524.997165763833
2324.983283106987 1567.296838677013
2325.5663510330232 1557.4128014218036
2326.1492779749933 1675.293849901164
2326.7320639645204 1461.1725792760878
2327.3147090332004 1364.5558697501858
2327.897213212629 1343.6024375757183
2328.4795765343843 1322.5177428390903
2329.0617990300307 1340.2342941620823
2329.643880731124 1569.3988322283208
2330.22582166921 1512.9224282994135
2330.807621875816 1475.1040215189696
2331.3892813824623 1439.0452955924475
2331.9708002206517 1496.3497196074072
2332.5521784218818 1596.322626529322
2333.133416017634 1397.3560448996325
2333.7145130393765 1417.5526618599583
2334.295469518571 1257.2292581526588
2334.876285486658 1674.7599898670692
2335.456960975076 1145.596323169841
2336.037496015242 1545.171956867947
2336.6178906385667 1687.2739772828622
2337.198144876451 1795.4718729284202
2337.778258760278 1356.73650466311
2338.3582323214214 1287.9164446180064
2338.938065591243 1636.703537668989
2339.517758601087 1469.8519581890666
2340.0973113822965 1435.2547629489416
2340.676723966193 1271.163414066477
2341.255996384094 1175.770006055492
2341.835128667295 1495.001114097652
2342.4141208470883 1628.0160163458409
2342.992972954751 1246.9121121488743
2343.5716850215467 1288.0495105133577
2344.1502570787306 1429.0176465461886
2344.7286891575386 1570.1850407295528
2345.3069812892045 1597.6280911097608
2345.885133504944 1619.7788639538537
2346.4631458359618 1345.8408575289513
2347.04101831345 1550.5883806143656
2347.6187509685915 1551.5551782895993
2348.196343832553 1362.3433192825837
2348.7737969364935 1181.6329915077254
2349.351110311558 1246.1283486964128
2349.9282839888765 1310.7437250731552
2350.5053179995757 1476.0769021135193
2351.0822123747585 1527.077519536339
2351.658967145526 1578.2412700086638
2352.2355823429643 1404.284183457495
2352.812057998144 1351.1810883505366
2353.3883941421263 1399.9329058140206
2353.9645908059647 1448.8446925936807
2354.540648020693 1580.6509088677096
2355.116565817336 1409.6758969721175
2355.6923442269126 1397.1182638370562
2356.2679832804224 1319.1776044602334
2356.8434830088518 1170.3119674302375
2357.41884344318 1461.7740464338654
2357.994064614377 1371.097369673254
