#exp_cfg={"servo_angle": 0.0, "laser_lim": 100.0, "servo_angle_to": 18.0, "laser_wup": 0.0, "bt_dev": "EnSpectr-25AE3", "laser_wdn_max": 0.0, "frames": 10.0, "servo_used": 0, "servo_calib_use": 0, "laser_wdn_min": 0.0, "servo_pix_from": 90.0, "cooler_tout": 300.0, "servo_angle_from": 0.0, "servo_calib": "[-1.9174921013161362e-09, 3.9322238269163779e-05, -0.27385609119055809, 653.59552119713567]", "laser_autoctl": 0, "servo_pix_to": 3682.0, "laser_pw": 100.0, "cooler_on": 0, "laser_volt": 4.0, "cooler_autoctl": 0, "cooler_curr": 70.0, "cooler_startup": 10.0, "laser_fixed_pw": 0, "gain": 1.3, "offset": 2.53059635486, "servo_calib_degree": 3.0, "laser_curr": 55.0, "shutter": 8200.0, "servo_calib_step": 1.0, "laser_fixed_curr": 0, "exp": 2000.0, "ccd_volt": 4.7, "bt_addr": "00:06:66:62:5A:E3", "servo_delay": 500.0, "laser_autooff": 1}
#proc_cfg={"flat_auto_wnd": 200.0, "flat_auto_fr": 200.0, "flat_auto_shift": 5.0, "yconv": 1, "flatten": 1, "flatten_strength": 100.0, "xfrom": 300.0, "auto_max_frame": 2000.0, "auto_signal": 48000.0, "flat_auto_tol": 0.1, "autoclip": 1, "xrel_range": 0.0, "flat_auto_to": 4000.0, "intensity_adj": 1.0, "xrel": 7852.0, "rmhot": 1, "flat_auto_slit": 4.999999999999997, "auto_ini_exp": 300.0, "auto_off": 0, "xto": 2860.0, "flat_auto_ref": "", "flat_auto_rank": 1, "autobackg": 0, "xrel_adj": 0.0, "auto_black_lvl": 1, "base_wnd": 100.0, "sub_baseline": 0, "xconv": 2, "auto_max_exp": 1000.0, "auto_total_exp": 10000.0, "auto_exp": 0, "rmripple": 0, "black_lvl": 8229.5375, "shutter_clip_adj": 0.0, "auto_bckg": 0, "flat_auto_thr": 0.9, "subbackg": 1}
316.8218498245369 14022.081649179328
317.89969571804795 13871.74944518391
318.977263876126 13830.38089035299
320.05455438786703 13808.168187126192
321.1315673423287 13739.878888480245
322.2083028285215 13727.562817783462
323.2847609354267 13764.423619677782
324.3609417519747 13642.425910878714
325.43684536705587 13643.137417078255
326.5124718695279 13590.525071908074
327.58782134820103 13628.369406290201
328.66289389184385 13574.387473233222
329.7376895891921 13534.423287652166
330.8122085289342 13535.767755169343
331.88645079971866 13514.786614421266
332.9604164901575 13376.884004906495
334.03410568881554 13442.629907412125
335.1075184842266 13455.399946515416
336.18065496487543 13309.722733523216
337.2535152192122 13239.605996101502
338.32609933564163 13322.555018916119
339.39840740253203 13299.921458112565
340.4704395082099 13186.510473766783
341.5421957409617 13206.843872395573
342.6136761890357 13269.000816389651
343.6848809406365 13098.284489922924
344.75581008392874 13101.799231780158
345.82646370703696 13066.088302145254
346.8968418980512 13024.550371609192
347.96694474501055 13068.015369966348
349.0367723359268 12996.945937328719
350.106324758759 12972.01027160356
351.1756021014353 12895.152734321166
352.2446044518383 12976.627382005532
353.31333189781435 12932.614650439264
354.38178452716966 12890.18135082069
355.449962427665 12935.814243783872
356.51786568702846 12841.690081140907
357.58549439294256 12983.96960028929
358.6528486330535 12885.883789838961
359.71992849496564 12841.98223913543
360.7867340662433 12892.203918592802
361.8532654344144 12803.722887752889
362.9195226869597 12946.804305659947
363.9855059113288 12685.233625936196
365.05121519492604 12705.888274553627
366.11665062511565 12815.068758969654
367.1818122892273 12814.434635925656
368.2467002745434 12676.74680872734
369.31131466831175 12776.823510461136
370.375655557742 12802.933420991778
371.4397230299983 12769.831286639437
372.5035171722102 12732.466069310894
373.5670380714637 12727.450490451452
374.6302858148101 12822.916627200837
375.6932604892554 12882.480744689617
376.7559621817709 12839.009114891214
377.81839097928605 12743.635989538083
378.8805469686886 12761.116730888283
379.94243023683157 12768.635356326758
381.0040408705263 12805.534120875465
382.0653789565458 12765.364403183916
383.1264445816196 12731.190675618898
384.1872378324406 12735.968532268973
385.2477587956637 12701.117334655693
386.3080075579037 12714.905946380442
387.3679842057336 12612.640230473624
388.4276888256918 12625.157541395656
389.48712150426945 12589.39686843467
390.54628232792857 12614.089896225178
391.6051713830857 12611.373212027047
392.66378875611736 12562.609903787805
393.7221345333637 12518.255004185605
394.7802088011249 12537.347035653329
395.838011645661 12495.927184465952
396.89554315319765 12418.826555384981
397.9528034099112 12437.172079401129
399.00979250194723 12413.970549010392
400.06651051541485 12393.140795537298
401.1229575363741 12333.372874635319
402.17913365085224 12446.988674337808
403.23503894483656 12471.709642158854
404.2906735042761 12328.628655097593
405.3460374150818 12336.964590049258
406.401130763119 12377.956400463569
407.455953634224 12426.269738439896
408.5105061141876 12323.277809340478
409.56478828876243 12165.327212881348
410.6188002436629 12308.68948097354
411.6725420645689 12178.485692149017
412.72601383711117 12213.142358779409
413.77921564689314 12234.426274057876
414.8321475794728 12126.46744755566
415.88480972036814 12080.506509733279
416.93720215506437 12209.515554144966
417.9893249690049 12051.129200856316
419.04117824759123 12014.617187975575
420.09276207619223 12037.287542171796
421.144076540133 12061.381590031315
422.1951217247042 12034.598686887704
423.24589771515275 11987.674363842594
424.2964045966928 11978.95224261304
425.34664245449494 11909.197791676264
426.3966113736933 12002.849845175178
427.4463114393875 11931.755070316272
428.49574273662984 11868.645264964618
429.5449053504417 11882.76303015627
430.5937993658026 11890.573922556854
431.6424248676558 11762.397083006148
432.6907819409007 11853.956758114316
433.73887067040596 11826.360112953565
434.7866911409965 11760.556362496045
435.8342434374608 11787.273860896323
436.88152764455117 11711.562769652994
437.9285438469724 11784.061964908104
438.9752921294057 11679.068243389953
440.02177257648145 11696.272762815865
441.06798527279716 11668.092707365782
442.1139303029122 11726.09877883806
443.1596077513459 11749.836804052578
444.2050177025794 11768.137190034637
445.25016024105753 11814.605213113757
446.2950354511886 11761.571121978679
447.33964341733736 11785.549452963802
448.383984223834 11647.878258816341
449.4280579549686 11783.49359589312
450.471864694995 11762.816034350622
451.5154045281306 11751.1905877635
452.5586775385509 11744.570338647081
453.60168381039693 11767.088679314995
454.64442342776783 11867.587664043962
455.6868964747264 11798.247640887927
456.7291030353008 11771.809647204334
457.77104319347563 11756.049691209144
458.8127170332027 11854.972007483984
459.854124638392 11879.4811118635
460.895266092919 11984.95794204624
461.93614148061897 11959.95323051321
462.97675088529104 12011.886058533764
464.01709439069236 12093.097469784045
465.0571720805492 12158.861233033127
466.0969840385442 12144.222722381926
467.1365303483253 12283.26137007898
468.17581109350067 12203.523523937396
469.2148263576437 12196.412335372233
470.2535762242878 12265.57229262526
471.29206077693016 12317.064980377185
472.33028009902773 12259.067042532273
473.3682342740012 12348.606141275955
474.40592338523857 12307.4880417207
475.4433475160804 12242.840113329552
476.4805067498364 12287.032440337041
477.51740116978 12240.404388394338
478.5540308591426 12210.668341391809
479.59039590112116 12232.25315263083
480.6264963788726 12178.34660530815
481.6623323755193 12239.951617616574
482.6979039741436 12157.145512600111
483.7332112577915 12184.670013680987
484.76825430947247 12131.104443684588
485.80303321215797 12255.950299473285
486.837548048783 12327.496322102983
487.8717989022425 12369.994754555626
488.90578585539697 12356.404537712355
489.9395089910686 12420.236730736236
490.97296839203955 12395.967188011195
492.00616414106116 12329.246180884213
493.0390963208429 12349.86193490824
494.0717650140559 12376.293037244202
495.10417030333883 12330.922149144815
496.1363122712901 12394.292418006422
497.16819100046814 12301.182097005601
498.1998065734024 12236.67462934091
499.2311590725767 12234.242596749533
500.26224858044407 12136.756755394179
501.2930751794156 12166.73899918293
502.3236389518679 12100.56724184484
503.35393998014115 12020.139787475866
504.38397834653733 12043.250382997157
505.4137541333221 12100.224596339724
506.4432674227228 11899.077804421122
507.4725182969323 11937.819966077332
508.5015068381035 11733.424081635754
509.53023312835467 11846.950651411944
510.55869724976765 11725.918678749335
511.58689928438434 11537.276977252064
512.6148393142121 11609.47203093071
513.6425174212218 11560.042291413067
514.6699336873462 11587.756835539723
515.6970881944835 11616.38054427983
516.7239810244901 11522.89867799247
517.7506122591931 11553.648814060305
518.7769819803761 11656.583693517123
519.8030902697901 11632.521088431427
520.8289372091476 11769.205149634476
521.8545228801249 11731.644271022129
522.8798473643619 11717.106197909767
523.9049107434621 11699.366331756504
524.9297130989908 11825.255985308304
525.9542545124805 11591.285804113566
526.9785350654201 11649.21397527102
528.0025548392696 11599.76573839187
529.0263139154504 11633.679024224568
530.0498123753423 11496.169027898444
531.073050300296 11482.054497901336
532.0960277716204 11476.350974908088
533.1187448705896 11434.513987350616
534.1412016784416 11411.170921248635
535.1633982763833 11439.252985160616
536.1853347455726 11364.420095861093
537.2070111671401 11307.694030907944
538.2284276221817 11348.8829301687
539.2495841917516 11268.247670514946
540.2704809568677 11152.878893997175
541.2911179985167 11183.479267963907
542.3114953976419 11054.25096677851
543.3316132351592 11122.089002453282
544.3514715919409 10943.540917343988
545.3710705488247 11002.595368366812
546.3904101866156 10916.168496629934
547.4094905860784 11028.072830908603
548.4283118279418 10904.664648644897
549.4468739929034 10965.725127983984
550.4651771616191 10870.109447746292
551.4832214147063 10852.894594305038
552.501006832761 10835.40248108604
553.5185334963226 10811.300206701446
554.5358014859103 10856.96787671401
555.5528108820035 10832.63991699795
556.5695617650363 10781.57472659639
557.5860542154242 10833.595956535535
558.6022883135283 10815.80663980477
559.6182641396881 10761.034490669936
560.6339817741991 10744.260657233015
561.6494412973225 10824.641578493685
562.6646427892883 10757.896193728418
563.6795863302796 10694.535817592106
564.694272000459 10738.1941657695
565.7086998799423 10786.544723620247
566.7228700488104 10748.784826222081
567.7367825871115 10676.134551815809
568.7504375748576 10683.039425524612
569.7638350920224 10713.129145166295
570.7769752185486 10727.701340215415
571.7898580343353 10728.163770675943
572.802483619258 10652.636321895887
573.8148520531431 10778.27139577008
574.8269634157932 10716.59062432296
575.8388177869692 10680.19833131632
576.8504152463938 10715.69913005429
577.8617558737587 10740.382865092735
578.8728397487175 10777.448219963939
579.883666950891 10813.462756742996
580.8942375598654 10863.480309529617
581.9045516551851 10875.102003630567
582.9146093163617 10942.646897002454
583.924410622878 10926.853901578119
584.9339556541727 10853.292133205916
585.9432444896538 11014.165156132818
586.9522772086875 10835.06179016969
587.9610538906127 10981.403517385497
588.9695746147318 10885.863423535095
589.9778394603054 11001.733845008373
590.985848506567 10950.401727524775
591.9936018327098 10902.515535088409
593.0010995178891 10774.028299412508
594.0083416412344 10866.33151135257
595.0153282818283 10867.067071012094
596.0220595187293 10861.059815342229
597.0285354309508 10748.943184943579
598.0347560974806 10708.83945977074
599.0407215972609 10766.820819220304
600.0464320092051 10683.261038718494
601.0518874121954 10757.677981766254
602.0570878850685 10722.105236406738
603.062033506636 10711.338158205852
604.0667243556636 10640.200649339125
605.0711605108936 10588.941581204783
606.0753420510264 10800.04639434448
607.0792690547278 10694.888013394735
608.082941600629 10642.477591568077
609.0863597673306 10521.444141802358
610.0895236333909 10693.658107204214
611.0924332773357 10686.104304504306
612.0950887776617 10766.284388582808
613.0974902128219 10754.94599910566
614.0996376612384 10768.75354958112
615.1015312013005 10764.99366891598
616.1031709113595 10802.40487520819
617.1045568697336 10775.802658688443
618.1056891547069 10864.108639375241
619.1065678445229 10933.847719996218
620.1071930173985 11066.254639454146
621.1075647515099 11018.644545086974
622.1076831250048 11015.5725220085
623.1075482159849 11087.841560015777
624.1071601025305 11191.10669883253
625.1065188626781 11274.003851443947
626.105624574433 11399.234658084239
627.1044773157682 11404.438569358841
628.1030771646128 11501.05901630603
629.1014241988742 11441.665548532885
630.0995184964158 11621.018372524797
631.0973601350688 11659.31775513338
632.0949491926294 11804.454507097234
633.0922857468631 11694.591549863417
634.089369875499 11782.072369625543
635.0862016562278 11836.259471673733
636.0827811667077 11732.123962032612
637.0791084845641 11828.64321026082
638.0751836873878 11757.623642339242
639.0710068527369 11693.999893464683
640.0665780581294 11680.024233191303
641.0618973810506 11631.124517467575
642.0569648989604 11549.439134519544
643.0517806892676 11506.104423214285
644.0463448293649 11393.2038893532
645.040657396592 11326.823976528223
646.0347184682723 11359.777840383298
647.0285281216875 11216.546213114812
648.0220864340772 11298.32213840283
649.0153934826558 11132.802138658113
650.0084493446047 11105.464300706351
651.0012540970674 11113.034679175355
651.9938078171526 11077.654507333697
652.9861105819346 10987.982705293562
653.9781624684565 11094.68534636071
654.9699635537254 11126.60752909468
655.9615139147136 11261.716052727961
656.9528136283589 11187.358858735406
657.9438627715699 11337.049515583014
658.9346614212154 11373.651448388524
659.925209654135 11435.02786051072
660.9155075471263 11653.236114054174
661.9055551769616 11654.816786190013
662.895352620375 11859.78233763062
663.8848999540678 12033.058585321032
664.8741972547068 11821.236230558809
665.863244598926 11868.367778108908
666.8520420633213 11817.463476901119
667.8405897244611 11714.468344915967
668.8288876588758 11461.156769866346
669.8169359430613 11435.341405224666
670.8047346534822 11218.937969140858
671.7922838665672 11155.040755792244
672.7795836587156 10958.382509384308
673.766634106285 11027.08326210379
674.7534352856092 10910.84639204918
675.7399872729766 10852.448820276457
676.7262901446538 10819.645677581577
677.712343976862 10740.07784737308
678.6981488457986 10774.810056593993
679.6837048276229 10675.165056366039
680.6690119984596 10702.499403813521
681.6540704344043 10582.245293729226
682.6388802115107 10580.265303574957
683.6234414058108 10493.904067872805
684.6077540932874 10448.830009483978
685.591818349907 10434.864406858298
686.575634251587 10284.383469310444
687.5592018742263 10327.575032979441
688.5425212936734 10104.105663854774
689.5255925857564 10288.32710365974
690.5084158262707 10175.182812370038
691.4909910909646 10265.026009893747
692.4733184555644 10061.00975915144
693.4553979957618 10145.988214547202
694.4372297872123 10170.009957094724
695.4188139055404 10174.691842195156
696.4001504263324 10059.839802476921
697.3812394251509 10076.304743591467
698.3620809775111 10024.855100572899
699.3426751589104 9952.4958771198
700.3230220448004 9914.642103453156
701.3031217106054 10038.47754794639
702.2829742317172 9973.790861145102
703.2625796834873 9979.956135388551
704.2419381412474 9867.946053905023
705.22104968028 9918.345222522854
706.1999143758458 9952.010626135116
707.178532303169 9853.073775883999
708.1569035374378 9940.391069222522
709.1350281538107 9921.36914667372
710.1129062274158 9888.335757127108
711.0905378333373 9997.228184029187
712.0679230466376 9914.953826462035
713.0450619423427 9997.10134011038
714.0219545954424 9988.822246803244
714.9986010808989 9928.346208859844
715.9750014736292 9966.188567115902
716.9511558485392 10018.30563738056
717.9270642804786 10006.821135920121
718.9027268442787 10057.52539416994
719.8781436147328 10000.184337223649
720.8533146666014 10014.495557394
721.828240074612 10087.644088552323
722.8029199134635 10015.204885931975
723.7773542578125 10064.745204089619
724.751543182294 10010.370762947034
725.7254867615029 9977.51029479828
726.6991850700015 9925.348920720411
727.6726381823228 9897.86006130074
728.6458461729599 9933.826144275983
729.6188091163858 9927.402667155442
730.5915270870246 9881.565517770376
731.5640001592856 9764.795085335149
732.536228407529 9842.53472702517
733.5082119060917 9852.437354516096
734.4799507292755 9745.29995637757
735.4514449513481 9810.020919064635
736.4226946465496 9889.451157080073
737.3936998890786 9808.695641668153
738.3644607531078 9830.771081459969
739.3349773127793 9848.436947112074
740.3052496421951 9823.638149223365
741.27527781543 9736.116621497287
742.2450619065221 9764.68689421946
743.2146019894826 9743.948629706447
744.183898138288 9689.465831825024
745.1529504268801 9659.623249668984
746.1217589291682 9602.409472441726
747.0903237190341 9535.692480651684
748.058644870318 9586.41248833114
749.0267224568397 9492.733828111706
749.994556552374 9419.35013523582
750.9621472306771 9473.479750122304
751.9294945654583 9423.316292955213
752.8965986304011 9443.50723807433
753.8634594991636 9465.336607295734
754.8300772453586 9423.893000851574
755.7964519425768 9422.088066212722
756.762583664371 9441.335294573724
757.7284724842611 9448.284463164471
758.6941184757416 9464.514613609435
759.6595217122667 9472.178823358772
760.6246822672638 9472.438756457706
761.5896002141235 9471.431595428494
762.5542756262093 9527.547911245329
763.5187085768503 9427.953552652483
764.4828991393406 9480.76237336908
765.4468473869474 9462.522049700858
766.4105533929032 9331.883338978547
767.3740172304078 9325.438958056106
768.3372389726283 9296.81652153496
769.3002186926988 9272.291379072818
770.2629564637282 9162.246625054384
771.2254523587872 9254.881740249231
772.1877064509154 9180.166203533472
773.1497188131179 9157.255960052047
774.1114895183728 9138.477766302958
775.0730186396268 9137.897361888168
776.0343062497905 9041.224462925611
776.9953524217381 9030.23590762763
777.9561572283274 9068.512720517694
778.9167207423689 9044.158315791534
779.8770430366476 9051.130205623998
780.8371241839159 9010.740553336731
781.7969642568951 9052.149079230767
782.7565633282757 9121.351738861458
783.7159214707099 8950.813239140165
784.6750387568281 9049.71854644126
785.6339152592227 8993.151930340639
786.5925510504512 8969.826518983018
787.5509462030477 8999.698125454588
788.5091007895098 9014.708770952551
789.4670148823006 9062.612509932798
790.4246885538596 8963.510867421075
791.3821218765861 8988.3397163566
792.3393149228505 8889.09486640503
793.2962677649975 9024.656084547109
794.2529804753303 8959.967549860854
795.20945312613 9020.98275066802
796.1656857896378 8899.103829536198
797.1216785380675 8917.902586377906
798.0774314435985 8942.390897521345
799.0329445783846 9018.785531788542
799.9882180145414 8962.085651037365
800.9432518241574 8983.155052197144
801.89804607929 9066.540587119862
802.852600851962 9116.522752589111
803.8069162141637 9041.625537969183
804.760992237856 9096.830943907178
805.714828994971 9023.648587985339
806.6684265574077 9163.834893536681
807.6217849970271 9087.775770330758
808.574904385674 9093.673125352278
809.527784795142 9053.842240441005
810.4804262972102 9136.338445250989
811.4328289636178 9057.028688375114
812.3849928660748 8924.93640493035
813.3369180762638 9017.574362655243
814.2886046658241 8894.668607486037
815.2400527063783 8926.776776882367
816.1912622695108 8886.412199617855
817.1422334267718 8925.724898822657
818.0929662496856 8858.707697868025
819.0434608097457 8884.781528330319
819.9937171784059 8793.014838372974
820.9437354271013 8727.78880066528
821.8935156272255 8797.84947290456
822.8430578501484 8729.460780023244
823.7923621672016 8618.60356942168
824.7414286496896 8641.178243422986
825.6902573688876 8712.928227664324
826.6388483960363 8756.00639913393
827.5872018023492 8646.186219281883
828.5353176590033 8641.467449472382
829.4831960371503 8553.113367755555
830.4308370079016 8620.389938575368
831.3782406423525 8598.995183638197
832.3254070115545 8581.957061906216
833.2723361865319 8541.22525706585
834.2190282382799 8645.400416108801
835.1654832377644 8721.598472631767
836.1117012559116 8710.47906847423
837.0576823636256 8734.02639186678
838.003426631778 8630.73120774204
838.9489341312074 8531.447220295013
839.8942049327197 8549.451328159681
840.8392391070975 8543.193835519061
841.7840367250865 8568.248186436878
842.7285978573982 8507.237552246275
843.672922574724 8582.399705750915
844.6170109477152 8558.525695499542
845.560863046996 8543.595316098483
846.5044789431595 8396.23885173318
847.4478587067697 8431.770030615377
848.3910024083561 8450.060589390796
849.333910118421 8486.412953058341
850.2765819074339 8396.912461510985
851.2190178458332 8477.636455372232
852.161218004032 8420.4674920709
853.1031824524016 8450.412423560756
854.0449112612987 8405.808407033383
854.9864045010327 8463.023632875282
855.9276622418947 8412.560049158517
856.8686845541379 8375.609633432809
857.8094715079915 8377.651607252224
858.7500231736467 8413.81639999985
859.690339621271 8423.249913486783
860.6304209209939 8420.915091852741
861.5702671429244 8226.230031377949
862.5098783571284 8311.995698088522
863.4492546336569 8301.904051539874
864.3883960425155 8287.221869560364
865.3273026536863 8289.736832309458
866.2659745371238 8351.698227430534
867.2044117627465 8434.662130874303
868.1426144004472 8291.14726094859
869.0805825200823 8351.705084729709
870.0183161914847 8398.424322037394
870.9558154844526 8421.327687740488
871.8930804687552 8390.869882330891
872.8301112141307 8462.569860100391
873.7669077902865 8503.051589949575
874.7034702669062 8483.382462111036
875.6397987136315 8483.142166494716
876.5758932000863 8503.701668141479
877.5117537958522 8549.35998692152
878.4473805704911 8614.457506311119
879.3827735935283 8566.70740461321
880.3179329344603 8559.88735189632
881.2528586627541 8583.495220706336
882.1875508478479 8527.720493287028
883.1220095591489 8431.693324101854
884.0562348660296 8361.727727355494
884.9902268378391 8579.69452914926
885.9239855438955 8501.756671680723
886.8575110534839 8451.836114721898
887.7908034358588 8458.104046025263
888.7238627602474 8467.870701514235
889.6566890958475 8422.556504341168
890.5892825118208 8319.19242342483
891.5216430773125 8387.528124209311
892.4537708614189 8297.534587780152
893.3856659332196 8275.161923016629
894.3173283617652 8274.212770094842
895.2487582160684 8273.06954567684
896.179955565116 8306.88484710779
897.110920477864 8127.935963702768
898.0416530232451 8286.200336568476
898.9721532701478 8192.620562994023
899.9024212874428 8259.003702108606
900.8324571439662 8168.751534909583
901.7622609085302 8093.808166602759
902.6918326499072 8103.851781688332
903.6211724368477 8247.86257322387
904.5502803380696 8159.439211393746
905.4791564222614 8190.202407841018
906.4078007580792 8175.975730708595
907.3362134141571 8111.142569219257
908.2643944590909 8176.88046723717
909.1923439614493 8156.7837698808535
910.1200619897754 8157.488669440861
911.0475486125779 8242.039811779663
911.9748038983344 8117.3308123788765
912.9018279155007 8120.560629683068
913.8286207324982 8121.8341061927495
914.7551824177117 8047.090706937718
915.6815130395116 8152.119737964998
916.6076126662283 8051.793446281068
917.533481366163 8087.018224221746
918.4591192075914 8004.871412381135
919.3845262587565 8078.046547376808
920.3097025878706 8064.753216151735
921.2346482631237 8076.226491405301
922.1593633526682 8054.019296133878
923.0838479246304 8018.85269695711
924.0081020471061 8006.178139312304
924.9321257881656 8033.33759843124
925.8559192158464 7937.06306288645
926.7794823981512 7913.207786629467
927.7028154030686 8018.4699569900185
928.6259182985414 7833.579961413177
929.5487911524906 7999.743073197205
930.4714340328119 7902.862930326208
931.3938470073608 7807.280200490886
932.3160301439748 7964.499145941695
933.2379835104548 7903.191478396204
934.1597071745709 8012.973563365767
935.0812012040769 7971.666552513013
936.002465666681 7839.059338130418
936.9235006300696 7953.8700560714715
937.8443061619055 7924.958033643738
938.7648823298077 7837.994010479672
939.6852292013809 7866.394719106252
940.6053468441951 7922.465463340537
941.5252353257874 7846.049890061683
942.4448947136698 7965.385882794889
943.364325075323 7867.43955823433
944.2835264782043 7905.000109871631
945.2024989897309 7897.194190990753
946.1212426773054 7965.909789523808
947.0397576082851 7872.020975676486
947.9580438500125 8007.656078558556
948.8761014697939 7897.434511163216
949.7939305349064 7977.554712724336
950.7115311125999 7958.204332384843
951.6289032700952 8061.00155939294
952.5460470745875 7966.043720338786
953.4629625932339 7919.123324629401
954.3796498931715 7991.448999214859
955.2961090415029 8038.091464553081
956.2123401053068 7910.739517667507
957.1283431516276 7960.453249529952
958.0441182474842 7910.980678931502
958.9596654598663 7966.573876487945
959.8749848557309 7930.274874123825
960.7900765020167 7945.216708719458
961.7049404656209 7922.017736693556
962.6195768134185 7971.534855152031
963.5339856122537 7932.454250948511
964.4481669289453 7915.209488272095
965.3621208302793 7832.664109433094
966.2758473830145 7938.11689812757
967.1893466538822 7893.7839720093925
968.1026187095813 7912.116799008676
969.0156636167867 7970.278569925805
969.9284814421426 7941.281730554544
970.8410722522622 7866.812784041127
971.753436113735 7875.247980335492
972.6655730931161 7903.602787012818
973.5774832569368 7963.772256798989
974.4891666716958 7890.672724995886
975.4006234038698 7907.037436001818
976.3118535198955 7842.7048006788245
977.2228570861935 7988.721063943403
978.1336341691494 7872.275292754397
979.0441848351202 8010.199443511997
979.9545091504333 7903.130161002297
980.864607181391 8037.493718511447
981.7744789942699 7964.456485889542
982.6841246553086 8017.584505610883
983.5935442307236 7999.04828139728
984.5027377867027 7946.00753456262
985.4117053894024 7922.517447507465
986.3204471049557 7905.3848877476075
987.2289629994648 7948.643987227932
988.1372531390007 8080.765731152981
989.0453175896091 7979.940279506796
989.9531564173067 7989.906763187831
990.860769688079 7925.0452110107
991.7681574678918 8064.820670464593
992.6753198226706 8056.396904541323
993.582256818323 8027.505105542428
994.4889685207218 8099.957146782859
995.3954549957143 8188.606767528258
996.301716309119 8034.83904036547
997.2077525267232 8169.84038219178
998.1135637142943 8011.699011557039
999.0191499375615 8122.151411264119
999.924511262232 7933.207027738014
1000.8296477539861 8124.714201601698
1001.7345594784656 8029.083000670833
1002.6392465012996 8029.55220061617
1003.5437088880753 8112.086170460842
1004.4479467043584 8029.070217251329
1005.3519600156869 7970.9408519070075
1006.2557488875718 7995.799385419395
1007.1593133854858 7998.998668126636
1008.0626535748888 8114.021305357579
1008.9657695212009 8022.162347951123
1009.8686612898182 8072.889085099772
1010.7713289461135 8067.807053599582
1011.6737725554212 8132.202889885401
1012.5759921830577 8054.482282870212
1013.4779878943027 8130.548140521741
1014.379759754418 8076.835128527663
1015.2813078286254 8046.745299903545
1016.18263218213 8007.838242549949
1017.0837328801026 8042.422520594415
1017.9846099876886 8098.0485658771995
1018.8852635700023 8019.63618099704
1019.7856936921362 7899.884784755544
1020.6859004191447 8017.8415476269965
1021.5858838160675 8071.989657671237
1022.4856439479063 7945.038549313016
1023.3851808796389 7910.298792125373
1024.2844946762143 7962.948435643564
1025.183585402554 7842.503977451946
1026.082453123554 7822.775639340189
1026.9810979040776 7693.244394883751
1027.8795198089647 7809.068031785837
1028.777718903024 7833.487038381265
1029.6756952510368 7756.128201862011
1030.5734489177648 7699.038215203638
1031.4709799679313 7958.324763435403
1032.3682884662358 7781.091087735203
1033.2653744773506 7761.511985476738
1034.1622380659192 7763.695932467561
1035.058879296559 7768.257428454648
1035.9552982338591 7745.94707957886
1036.8514949423825 7758.456528124298
1037.7474694866614 7866.94961168404
1038.6432219312028 7913.838579948146
1039.5387523404825 7886.19037066839
1040.4340607789582 7967.883818405777
1041.3291473110476 7900.578717489045
1042.2240120011465 7983.879479359876
1043.1186549136273 8213.694179426791
1044.0130761128294 8052.473746616578
1044.9072756630649 8231.57631580022
1045.8012536286205 8252.696418507328
1046.6950100737577 8154.448615352936
1047.588545062701 8357.968262700892
1048.481858659663 8359.45601857987
1049.3749509288118 8374.384276865943
1050.2678219343034 8308.174353540626
1051.1604717402515 8409.900949206256
1052.0529004107575 8274.727135785934
1052.9451080098825 8436.53514614757
1053.8370946016694 8327.30803673243
1054.7288602501267 8465.261227124916
1055.6204050192446 8320.082236787575
1056.511728972977 8405.378190324856
1057.402832175254 8221.13463712743
1058.2937146899785 8220.50239672537
1059.1843765810263 8195.53066630247
1060.0748179122456 8223.056033045208
1060.9650387474576 8150.327516653082
1061.855039150456 8166.633974231273
1062.7448191850071 8091.608435334022
1063.6343789148505 7922.02714178711
1064.5237184037014 7949.823354858381
1065.412837715241 7967.6558102839945
1066.3017369131267 7767.768423161784
1067.190416060992 7805.124062207858
1068.0788752224398 7681.991586939085
1068.9671144610438 7795.670296416001
1069.8551338403558 7838.712116530837
1070.7429334239023 7899.304821950715
1071.6305132751695 7711.583132737901
1072.517873457633 7730.567828149664
1073.4050140347335 7767.060733396201
1074.2919350698776 7696.841332989442
1075.1786366264623 7664.959780069595
1076.0651187678395 7891.74281712254
1076.95138155735 7680.7528786188195
1077.8374250582929 7741.654569108354
1078.7232493339507 7649.063507630201
1079.608854447577 7724.471016345886
1080.4942404623907 7813.098506364328
1081.3794074415982 7774.64740331014
1082.2643554483657 7737.590014476543
1083.149084545841 7706.975524851802
1084.033594797138 7584.237515462664
1084.9178862653516 7696.85676595218
1085.8019590135427 7714.112292718004
1086.6858131047484 7679.616235466876
1087.5694486019802 7672.788491096134
1088.4528655682225 7725.829527611393
1089.3360640664287 7602.901036620373
1090.2190441595321 7597.13684155313
1091.1018059104317 7649.817763933545
1091.98434938201 7663.165860764342
1092.866674637111 7623.797016843067
1093.748781738559 7685.298514735308
1094.6306707491512 7572.09597359432
1095.5123417316554 7599.0916512701515
1096.3937947488157 7642.752250327134
1097.2750298633455 7617.475856754025
1098.156047137938 7722.848834944647
1099.0368466352556 7728.410597820412
1099.9174284179317 7690.848443844086
1100.7977925485757 7703.541947854955
1101.6779390897755 7763.705570469346
1102.5578681040806 7806.150796123152
1103.4375796540226 7817.5631025948
1104.3170738021054 7811.738475441089
1105.1963506108077 7799.790389714659
1106.0754101425773 7723.383036887618
1106.9542524598382 7824.329296095906
1107.8328776249855 7767.668071980023
1108.7112857003904 7770.990178454251
1109.5894767483987 7732.597713594686
1110.4674508313292 7736.350037001144
1111.3452080114657 7827.909834545487
1112.2227483510815 7712.088203217805
1113.1000719124077 7805.876119602128
1113.9771787576592 7799.617043139195
1114.854068949022 7755.986913102405
1115.7307425486542 7693.3851290833
1116.6071996186893 7799.687163339096
1117.483440221229 7998.392032506534
1118.3594644183577 7829.167806600475
1119.235272272128 7822.613701910751
1120.1108638445658 7973.264919330979
1120.9862391976712 7959.18016562996
1121.8613983934229 8032.040125883817
1122.7363414937627 7980.748884749123
1123.6110685606182 8031.144770933056
1124.485579655884 8084.705052305672
1125.359874841426 8067.489539754481
1126.2339541790916 8083.926635393365
1127.1078177306936 8294.141170234181
1127.9814655580267 8159.266375171998
1128.854897722851 8198.051549627362
1129.7281142869106 8356.624307107773
1130.6011153119125 8347.901888880684
1131.473900859548 8384.753332984284
1132.3464709914697 8330.417977681038
1133.2188257693178 8318.064892471837
1134.0909652546961 8317.270779686474
1134.96288950919 8232.80312061812
1135.8345985943506 8343.628573673388
1136.7060925717087 8286.404705766081
1137.57737150277 8201.800746293267
1138.4484354490069 8209.228378224576
1139.3192844718778 8176.3800196705215
1140.1899186327992 8075.828824103107
1141.060337993178 8247.829226794142
1141.930542614382 8056.229890329445
1142.8005325577597 8035.054396658345
1143.670307884635 7823.975589404696
1144.5398686563003 7909.107572090504
1145.409214934025 7915.884574459351
1146.2783467790541 7787.586994936709
1147.1472642526023 7737.87327752041
1148.0159674158622 7741.678081482649
1148.8844563300026 7668.202112404532
1149.7527310561618 7607.228287095793
1150.6207916554504 7621.817802941698
1151.4886381889592 7541.063280291548
1152.3562707177498 7576.639458913218
1153.2236893028585 7558.789420297135
1154.090894005296 7452.671972677361
1154.9578848860474 7472.654738716861
1155.8246620060709 7334.431516185474
1156.6912254262988 7380.435874628609
1157.5575752076438 7407.776776290292
1158.42371141098 7419.10405101154
1159.2896340971656 7311.01624545899
1160.1553433270346 7402.492418470618
1161.0208391613887 7326.498914163729
1161.8861216610057 7360.491362707692
1162.75119088664 7394.571900926133
1163.6160468990201 7316.78745183697
1164.4806897588442 7285.4435003732815
1165.3451195267917 7484.653004756964
1166.2093362635114 7368.1659138448695
1167.0733400296285 7448.787667243433
1167.9371308857444 7362.836190407457
1168.8007088924278 7364.991531927813
1169.6640741102328 7401.631180307528
1170.5272265996773 7384.568538506578
1171.390166421259 7219.377220752237
1172.252893635452 7494.011956490382
1173.1154083026995 7449.3880384612185
1173.977710483421 7466.721621857299
1174.8398002380145 7379.057511383127
1175.7016776268483 7423.242743412578
1176.563342710264 7318.085066917569
1177.4247955485826 7302.2680368850615
1178.2860362020947 7368.035613160844
1179.147064731069 7359.910995918825
1180.0078811957483 7318.40047776248
1180.8684856563486 7368.745809421496
1181.7288781730604 7358.769149031269
1182.589058806052 7423.161747781317
1183.4490276154593 7453.578005967685
1184.3087846614017 7360.052180587138
1185.1683300039676 7458.346868114311
1186.027663703222 7561.214317442206
1186.8867858192025 7483.7221504918825
1187.7456964119228 7497.472792124672
1188.6043955413716 7484.112160089149
1189.4628832675116 7631.776471108472
1190.3211596502842 7479.5628942320445
1191.179224749596 7589.5721040505305
1192.0370786253388 7438.612450430008
1192.8947213373758 7611.693642291786
1193.7521529455407 7745.884022462395
1194.6093735096438 7582.695833551062
1195.466383089477 7596.4073380926075
1196.3231817447977 7611.37000825102
1197.1797695353398 7576.312897152365
1198.0361465208189 7620.8784732169715
1198.8923127609214 7573.099203420461
1199.7482683153048 7648.101943078967
1200.6040132436028 7590.555216740269
1201.459547605431 7645.989974235662
1202.3148714603722 7656.318858436383
1203.1699848679855 7578.482810839692
1204.0248878878065 7688.450565972156
1204.8795805793507 7610.606466127438
1205.7340630020935 7677.6107215041
1206.5883352155033 7821.427484301152
1207.4423972790064 7662.155990419548
1208.2962492520237 7670.186849828872
1209.1498911939307 7774.621699961777
1210.0033231640937 7914.587029698669
1210.8565452218427 7740.659522115161
1211.7095574264913 7810.963023043172
1212.5623598373222 7802.801233991058
1213.4149525135963 7731.878650305366
1214.2673355145507 7688.436397535775
1215.1195088993936 7770.230700726005
1215.9714727273113 7704.803113186783
1216.8232270574663 7888.7809719129555
1217.6747719489904 7723.24637656001
1218.5261074609934 7680.561129249536
1219.3772336525653 7680.885852521618
1220.2281505827668 7777.9485260971005
1221.0788583106296 7689.68240478896
1221.9293568951707 7786.102760903977
1222.7796463953746 7685.112291934891
1223.629726870202 7722.909579300172
1224.4795983785934 7692.2340036791675
1225.3292609794553 7661.748142555099
1226.1787147316809 7625.6008770444005
1227.0279596941327 7704.380283598293
1227.8769959256424 7657.761766002984
1228.7258234850306 7774.1604615396045
1229.5744424310833 7591.7765288184
1230.422852822563 7652.062978916026
1231.2710547182105 7718.235559064966
1232.119048176739 7655.03493358244
1232.9668332568417 7562.4612655270375
1233.8144100171812 7529.891322773318
1234.6617785163999 7685.078614356995
1235.508938813111 7471.318795365571
1236.3558909659114 7545.337313949434
1237.2026350333617 7639.307459947314
1238.049171074008 7611.82887716092
1238.8954991463652 7521.577110229249
1239.741619308932 7430.3360096936285
1240.587531620169 7445.86158265456
1241.4332361385277 7459.486081797821
1242.2787329224248 7398.031082098508
1243.1240220302534 7404.221938513724
1243.9691035203869 7484.2116929748545
1244.813977451171 7458.377878052526
1245.6586438809263 7393.671884234024
1246.5031028679496 7145.699318779958
1247.3473544705157 7309.344825356898
1248.1913987468706 7324.153319462754
1249.0352357552383 7237.608131260185
1249.8788655538228 7179.888992521113
1250.7222882007918 7217.100540080896
1251.565503754302 7287.632321746547
1252.4085122724755 7155.57272029696
1253.2513138134182 7277.155915791956
1254.0939084352049 7180.67719701217
1254.9362961958905 7173.8479251139925
1255.7784771535007 7229.500930040714
1256.6204513660432 7175.869489861053
1257.4622188915 7169.653831595276
1258.3037797878242 7286.5769707076615
1259.1451341129468 7179.116663022413
1259.9862819247755 7289.563530741574
1260.8272232811978 7137.957974766883
1261.6679582400666 7273.366193362516
1262.5084868592203 7191.299584479013
1263.34880919647 7245.165303273565
1264.1889253095997 7290.324206866088
1265.0288352563712 7177.063983921867
1265.8685390945266 7216.473461791298
1266.7080368817751 7234.83515416521
1267.5473286758115 7226.341931319958
1268.386414534294 7250.111485069055
1269.2252945148703 7158.795866235232
1270.0639686751547 7262.477105387176
1270.9024370727402 7319.230241784632
1271.7406997651997 7235.452916536752
1272.5787568100714 7274.053322397072
1273.4166082648808 7320.974343761083
1274.2542541871244 7362.606013685296
1275.091694634275 7314.429014083415
1275.9289296637817 7290.3091891593485
1276.7659593330663 7236.163610183901
1277.6027836995308 7314.38012303914
1278.4394028205552 7234.605557100714
1279.2758167534867 7391.257090265065
1280.112025555658 7387.0578084954595
1280.9480292843746 7354.595739857634
1281.7838279969128 7278.288001998868
1282.6194217505326 7370.046396429454
1283.4548106024686 7193.839454418463
1284.289994609926 7310.570743599938
1285.1249738300921 7323.758910036135
1285.959748320127 7170.1891603016575
1286.7943181371702 7291.459642597365
1287.6286833383328 7414.049799932298
1288.4628439807038 7357.303742467302
1289.2968001213521 7282.797085651956
1290.1305518173194 7371.377788274932
1290.9640991256183 7399.641278184121
1291.7974421032523 7458.800013735736
1292.630580807183 7464.3493457288305
1293.463515294361 7477.200177783998
1294.29624562171 7528.450440211702
1295.12877184613 7325.297378259538
1295.961094024493 7393.254774030177
1296.79321221365 7482.566015100127
1297.6251264704333 7510.223287999322
1298.4568368516466 7578.506971732857
1299.2883434140658 7560.739549585121
1300.1196462144526 7428.899198151477
1300.9507453095375 7504.361768620724
1301.7816407560313 7552.198010124035
1302.6123326106172 7522.0856414884165
1303.4428209299622 7426.227286448995
1304.2731057707024 7584.797759681333
1305.1031871894502 7419.431355672523
1305.933065242798 7469.835711478556
1306.7627399873181 7522.21211169404
1307.5922114795467 7680.080664881911
1308.4214797760123 7522.206022579283
1309.2505449332057 7393.913721096283
1310.0794070076026 7509.415201665999
1310.9080660556538 7598.801373912591
1311.736522133786 7419.918233586443
1312.5647752983987 7524.540625021767
1313.3928256058734 7421.436779627073
1314.2206731125661 7591.409776463572
1315.048317874809 7519.296515698325
1315.8757599489109 7513.139582621644
1316.7029993911547 7539.780166193993
1317.5300362578055 7621.543746749465
1318.356870605101 7465.577484446754
1319.183502489257 7516.778369357635
1320.0099319664623 7511.5365368373605
1320.836159092889 7561.697953329514
1321.66218392468 7501.171700731317
1322.4880065179532 7442.306369819076
1323.3136269288134 7478.987119207345
1324.1390452133292 7447.811514983225
1324.9642614275563 7379.542293310388
1325.7892756275214 7483.227437739972
1326.6140878692295 7360.231254216427
1327.4386982086617 7519.890092723457
1328.2631067017755 7510.056324986699
1329.0873134045069 7456.93314785083
1329.911318372764 7347.075945107853
1330.735121662441 7336.456066500953
1331.558723329399 7417.137266068312
1332.3821234294774 7346.494682132938
1333.2053220185007 7334.550175827257
1334.0283191522612 7365.598860777083
1334.851114886529 7393.114341549241
1335.6737092770582 7315.47556538951
1336.4961023795695 7282.0869273712215
1337.3182942497697 7288.466071208946
1338.1402849433325 7322.329313722829
1338.962074515921 7194.753090430971
1339.7836630231632 7108.898113195375
1340.6050505206676 7320.119474389932
1341.426237064028 7322.1719974317075
1342.2472227088037 7138.80960693917
1343.0680075105338 7039.4300555817945
1343.888591524741 7107.504603254425
1344.7089748069138 7204.659420485979
1345.5291574125276 7122.66576770582
1346.3491393970307 7009.413229300179
1347.168920815846 7219.793016163782
1347.9885017243778 7094.929179176196
1348.8078821780036 7161.582434913193
1349.6270622320844 7218.8652950508595
1350.4460419419447 7049.200939147677
1351.2648213629054 7143.83027077734
1352.0834005502438 6972.218364526319
1352.90177955923 6997.602432904498
1353.7199584451064 7170.863330589561
1354.5379372630887 7009.162198347219
1355.355716068374 6927.935820706336
1356.1732949161305 6947.280004204234
1356.9906738615155 6913.994189250555
1357.8078529596478 6987.821877980105
1358.6248322656375 6967.578063330892
1359.441611834567 6786.7863348925775
1360.2581917214866 7079.957718876438
1361.0745719814367 6728.631034430844
1361.890752669433 6773.752767227505
1362.7067338404577 6699.695844097521
1363.5225155494845 6812.684249059476
1364.3380978514506 6828.477879298752
1365.1534808012839 6616.216247368529
1365.9686644538815 6459.48815215744
1366.783648864117 6714.893165096881
1367.5984340868417 6639.7838559624015
1368.413020176893 6631.715196287085
1369.2274071890715 6582.512167375363
1370.0415951781652 6556.345873025812
1370.8555841989346 6295.428205989372
1371.6693743061223 6511.568979301971
1372.48296555444 6429.171474834485
1373.2963579985844 6590.434367523585
1374.1095516932255 6493.4011040150635
1374.9225466930166 6410.109481187354
1375.7353430525782 6461.732621054665
1376.5479408265164 6392.327014354605
1377.36034006941 6474.032412060742
1378.1725408358216 6474.130820651403
1378.9845431802805 6280.167838158247
1379.796347157304 6517.710952739081
1380.6079528213813 6460.041651435189
1381.4193602269788 6436.03401973377
1382.230569428546 6332.659402933844
1383.0415804805016 6632.4270407342165
1383.852393437246 6375.553946749498
1384.6630083531563 6516.760511095194
1385.4734252825892 6434.602374962948
1386.2836442798798 6424.847500815172
1387.0936653993322 6392.380315535176
1387.9034886952395 6370.520228823029
1388.713114221864 6365.716977836224
1389.5225420334482 6347.869556031699
1390.331772184214 6187.074981094824
1391.1408047283585 6353.301307372748
1391.9496397200564 6180.830253260947
1392.758277213461 6388.555137671961
1393.5667172627054 6311.3081691511325
1394.3749599218918 6178.251512639958
1395.1830052451114 6033.631028260512
1395.9908532864265 6192.016925713633
1396.7985040998774 6218.533171916773
1397.6059577394808 6023.319559118352
1398.4132142592352 6106.642246640435
1399.2202737131156 6093.280202880453
1400.027136155073 6153.27574827903
1400.8338016390353 6124.890270195392
1401.6402702189134 5938.742722109217
1402.446541948586 5985.688833465703
1403.2526168819204 5898.724866498204
1404.058495072757 5995.299551402057
1404.8641765749107 5872.738009448575
1405.6696614421799 5940.694999656841
1406.4749497283356 6004.9761667530165
1407.280041487129 5942.718526431645
1408.084936772295 5764.390718933668
1408.8896356375335 5958.851088839916
1409.6941381365323 6009.700128711669
1410.498444322955 5845.466243403096
1411.3025542504402 5907.910403780386
1412.106467972606 5972.256347900011
1412.9101855430508 5906.189488843132
1413.7137070153458 5758.197258405627
1414.5170324430437 5818.4500135198
1415.320161879672 5871.027904933797
1416.1230953787435 5977.011107024702
1416.925832993742 5905.291409334752
1417.7283747781275 5765.806275746513
1418.5307207853439 5777.9164560859335
1419.3328710688093 5838.11318382165
1420.134825681922 5760.6348013758925
1420.9365846780584 5829.000924898167
1421.7381481105713 5869.516160384603
1422.539516032788 5791.0891741687865
1423.3406884980232 5743.913812164215
1424.1416655595604 5737.455030289038
1424.942447270665 5738.295415579037
1425.7430336845828 5715.117695696518
1426.5434248545298 5762.687421978715
1427.3436208337116 5807.437866702026
1428.143621675301 5843.78499310883
1428.9434274324558 5819.095541332375
1429.7430381583108 5685.571624265491
1430.5424539059713 5735.91590064701
1431.3416747285337 6039.857883597662
1432.1407006790632 5781.428384408684
1432.9395318106053 5793.299694573128
1433.7381681761835 5688.448885164862
1434.5366098288014 5933.6625562782865
1435.3348568214424 5660.625875269282
1436.1329092070573 5717.640162634945
1436.9307670385879 5752.57114652794
1437.7284303689503 5823.217615869363
1438.5258992510335 5904.26968681822
1439.3231737377118 5859.656699732866
1440.1202538818306 5788.463485873029
1440.9171397362225 5668.44392303906
1441.7138313536925 5750.509737800065
1442.5103287870243 5713.725358583478
1443.3066320889775 5689.422834443287
1444.1027413122956 5865.537327667963
1444.8986565096966 5740.396655425115
1445.694377733882 5762.477645552388
1446.4899050375207 5665.084688993049
1447.2852384732687 5725.550509846825
1448.0803780937622 5649.150357324031
1448.8753239516063 5721.791631763256
1449.6700760993954 5576.30542604256
1450.464634589689 5681.9869048772025
1451.2589994750397 5743.914264382017
1452.0531708079689 5580.978571077556
1452.8471486409799 5581.009664570183
1453.6409330265524 5702.223583368193
1454.4345240171442 5590.121120937669
1455.2279216651987 5650.141082186706
1456.0211260231263 5643.735360118362
1456.8141371433194 5615.384087062679
1457.6069550781594 5531.431324217623
1458.3995798799897 5550.650027184593
1459.1920116011424 5551.952668723803
1459.98425029393 5520.148313996482
1460.7762960106338 5478.349308230221
1461.5681488035225 5426.509393284914
1462.3598087248392 5467.007594998188
1463.1512758268036 5381.6530733261225
1463.942550161617 5406.257979450062
1464.7336317814625 5344.548086932959
1465.524520738496 5359.792976009519
1466.3152170848552 5329.51449472928
1467.1057208726506 5308.522022609164
1467.8960321539817 5205.545920849591
1468.6861509809169 5174.8098368945975
1469.4760774055085 5283.71472559293
1470.265811479785 5248.93939027608
1471.055353255755 4986.504105100751
1471.844702785409 5205.625896480406
1472.6338601207044 5175.067378599282
1473.4228253135934 5235.594231115641
1474.2115984159936 5164.959389197892
1475.0001794798063 5025.865345513278
1475.7885685569145 5097.983047050384
1476.576765699172 5160.448987112175
1477.3647709584238 5082.401249715656
1478.1525843864802 5167.361625104448
1478.9402060351367 5215.0934654258945
1479.7276359561693 5153.454068407126
1480.514874201328 5034.789903970939
1481.3019208223468 5015.550303378675
1482.0887758709323 5005.613633137262
1482.8754393987747 4926.443310618487
1483.6619114575406 4948.386309388365
1484.4481920988783 5090.581748431339
1485.2342813744108 5062.57245693921
1486.0201793357446 4980.778416052339
1486.8058860344572 5074.49413277273
1487.591401522117 5000.017050931058
1488.3767258502594 4968.280799914248
1489.1618590704056 4851.628525737411
1489.9468012340494 4945.241098814817
1490.7315523926754 5040.722371052327
1491.5161125977356 5088.060313762922
1492.3004819006637 5015.068260523507
1493.084660352877 5012.779860188339
1493.8686480057622 5031.869858973045
1494.6524449106964 5195.283074621177
1495.4360511190262 5133.817390769913
1496.219466682087 4996.4345206692715
1497.0026916511779 5173.804497940271
1497.7857260775945 4963.9212544144475
1498.5685700125996 4985.312945006293
1499.3512235074395 5166.577162273698
1500.133686613337 5010.8745969704405
1500.9159593814966 4940.186494924954
1501.698041863101 5229.376832895441
1502.4799341093094 4890.2748420867765
1503.2616361712662 5025.977250537629
1504.043148100087 5045.01231288792
1504.8244699468742 5084.82901179618
1505.6056017626997 5122.029534402885
1506.3865435986281 4905.855515825607
1507.1672955056893 5019.471855435585
1507.9478575348967 5012.050344672114
1508.7282297372512 5125.523139596772
1509.5084121637192 4966.730864611245
1510.2884048652577 5037.528449460531
1511.0682078927948 4952.761238359895
1511.8478212972423 4938.918856184996
1512.6272451294917 4930.554769874618
1513.4064794404076 5097.820799367377
1514.1855242808433 5004.710057357387
1514.9643797016215 5103.980087025226
1515.743045753552 5034.7832657434465
1516.5215224874191 5038.041636777907
1517.2998099539836 4935.00749297503
1518.077908203999 5123.966664769851
1518.8558172881785 5164.830400411339
1519.633537257234 5190.865953585702
1520.4110681618404 4982.887446970284
1521.1884100526604 5345.855288040186
1521.9655629803365 5208.281800592445
1522.7425269954856 5305.392326714556
1523.5193021487103 5229.338992256152
1524.2958884905856 5092.418989761293
1525.0722860716687 5172.228640487623
1525.848494942502 5209.120078511191
1526.624515153595 5194.393265530934
1527.4003467554485 5349.175640974346
1528.175989798534 5300.621555323084
1528.9514443333064 5096.9039599439775
1529.726710410203 5190.224116391233
1530.5017880796331 5064.910217884741
1531.276677391992 5094.072189905087
1532.0513783976457 5240.382587702099
1532.825891146953 5083.665124992595
1533.6002156902414 5158.879854663925
1534.3743520778207 5085.200284208212
1535.1483003599806 5114.10048824381
1535.9220605869923 4941.472908907312
1536.6956328091019 5116.157658298188
1537.4690170765407 5091.891908794461
1538.242213439511 5131.755925422411
1539.015221948208 5156.402664680063
1539.78804265279 5123.464053932025
1540.560675603405 4905.863835386111
1541.3331208501804 5220.208206273222
1542.1053784432224 5229.719618636285
1542.8774484326168 5128.700736161705
1543.649330868422 5091.546768345079
1544.4210258006842 5124.1397118484765
1545.1925332794308 5057.660123864459
1545.9638533546604 5091.940719077919
1546.7349860763552 4999.743833072509
1547.5059314944829 5224.36581952519
1548.27668965898 5047.6306638851
1549.0472606197673 5227.392503416946
1549.817644426752 4978.966891009635
1550.5878411298072 5047.809339223804
1551.3578507787988 5061.338398456931
1552.1276734235635 5137.133559050973
1552.8973091139233 4986.313895197032
1553.6667578996767 5035.696379363939
1554.436019830604 5199.362516096014
1555.20509495646 5169.323353747173
1555.9739833269869 5058.72219762988
1556.7426849919011 4993.169154091348
1557.511200000903 5241.138565704211
1558.2795284036674 5183.770380196713
1559.0476702498509 5168.589181601648
1559.8156255890954 5256.757046563247
1560.5833944710157 5305.8653087052935
1561.3509769452048 5216.300217932267
1562.1183730612447 5184.261337168029
1562.8855828686865 5265.876033838525
1563.6526064170703 5389.445743558365
1564.4194437559127 5430.084377162281
1565.1860949347047 5296.121712184777
1565.9525600029283 5439.783107105588
1566.7188390100328 5398.794158354154
1567.4849320054564 5387.553855553569
1568.250839038612 5427.859124198126
1569.0165601588997 5344.755853288608
1569.7820954156887 5450.51409534751
1570.5474448583373 5389.77139354521
1571.31260853618 5434.1648067960805
1572.0775864985299 5230.27018223101
1572.8423787946813 5376.342592276582
1573.6069854739108 5390.829143049026
1574.371406585471 5524.392842807873
1575.1356421785986 5492.227909456156
1575.899692302506 5375.318679589576
1576.6635570063845 5313.064661221631
1577.4272363394157 5286.103247574879
1578.190730350747 5415.03146166614
1578.9540390895163 5064.486748868232
1579.7171626048384 5089.323202271616
1580.480100945806 5163.936901061506
1581.2428541614918 5229.0102932822765
1582.0054223009538 5065.170095579588
1582.767805413223 5114.541540075182
1583.5300035473156 5081.085915334697
1584.292016752228 5088.345876071795
1585.0538450769309 5035.806378972819
1585.8154885703807 5072.138192222281
1586.5769472815136 5013.534138268921
1587.3382212592405 5072.272044912081
1588.099310552463 5083.316969590003
1588.8602152100484 4604.243027088598
1589.6209352808564 5007.160840998017
1590.3814708137234 4942.127795592852
1591.14182185746 4907.24407937082
1591.9019884608679 5000.58702357601
1592.6619706727215 4669.995236280682
1593.4217685417734 4943.734603883808
1594.1813821167616 4882.211492926844
1594.9408114464022 4736.788408021659
1595.7000565793933 4997.754833897356
1596.459117564409 4828.4438971784675
1597.2179944501113 4750.1701902877285
1597.9766872851324 4869.010372528017
1598.735196118092 4753.960028687101
1599.4935209975883 4919.794341147938
1600.2516619721973 4815.088779244841
1601.0096190904787 4693.178803076403
1601.7673924009723 4897.153766367186
1602.524981952196 4727.337780479067
1603.2823877926476 4612.941709768819
1604.0396099708087 4741.060839423985
1604.7966485351371 4661.28881293391
1605.5535035340745 4721.812383276941
1606.3101750160404 4774.88837287426
1607.0666630294363 4727.797696979389
1607.822967622642 4534.946492196799
1608.5790888440224 4567.572952160619
1609.3350267419137 4765.824376791237
1610.0907813646445 4725.224731310857
1610.8463527605145 4762.583546420405
1611.601740977805 4692.649346439615
1612.356946064785 4671.395085288261
1613.1119680696902 4494.724028558189
1613.8668070407512 4531.7043662165315
1614.6214630261748 4568.784208526829
1615.375936074137 4538.863578542873
1616.1302262328118 4659.763983473549
1616.8843335503425 4512.257229737929
1617.638258074854 4461.809134215164
1618.391999854457 4421.295229354458
1619.1455589372363 4599.68286504989
1619.8989353712623 4690.421786711976
1620.65212920458 4291.887359659762
1621.4051404852235 4528.8015669108
1622.1579692611976 4408.789288610122
1622.9106155804966 4409.038387563851
1623.663079491087 4396.955469705741
1624.4153610409248 4474.828257044802
1625.1674602779385 4335.040135393687
1625.9193772500403 4242.078980815762
1626.6711120051277 4373.834208957872
1627.4226645910676 4396.9319650336565
1628.174035055721 4343.637034382145
1628.9252234469168 4310.865101112232
1629.676229812474 4153.023454717054
1630.4270542001905 4476.819829050563
1631.1776966578382 4364.532523504414
1631.9281572331747 4299.262619741547
1632.678435973945 4329.376975309349
1633.4285329278573 4293.73843507614
1634.1784481426203 4235.010210542678
1634.9281816659113 4270.903187605762
1635.677733545388 4359.320344345672
1636.4271038286934 4148.289939493728
1637.176292563452 4267.5632018353335
1637.9252997972635 4284.021675511207
1638.674125577716 4315.820625715335
1639.4227699523672 4331.547486920461
1640.171232968767 4034.2985984081315
1640.9195146744423 4272.384112780069
1641.6676151168977 4335.7517463143395
1642.4155343436178 4131.583707230045
1643.1632724020765 4170.248792272017
1643.9108293397167 4189.928113942977
1644.658205203974 4094.7837070593123
1645.4054000422566 4418.23709239224
1646.1524139019566 4038.8383587232975
1646.8992468304423 4263.301758993837
1647.6458988750728 4112.380371881892
1648.3923700831765 4205.17784527649
1649.1386605020743 4132.495960254681
1649.8847701790564 4255.679161127149
1650.6306991614038 4146.321670593328
1651.3764474963682 4134.787509626509
1652.1220152311944 4057.7638631708664
1652.867402413096 4219.361482496514
1653.6126090892776 3940.088551581883
1654.3576353069184 4359.154400026497
1655.1024811131829 4156.182808368753
1655.8471465552066 4154.089759553107
1656.5916316801213 4212.11300624961
1657.3359365350298 4119.874595168514
1658.0800611670165 4084.286672808635
1658.824005623148 4064.279989127181
1659.5677699504722 3936.6136970752973
1660.3113541960192 4028.1573516682547
1661.054758406799 4068.0160123216765
1661.7979826297997 3872.4065533067624
1662.5410269119966 3978.090590713697
1663.283891300338 3973.198980540591
1664.0265758417645 3950.4447474854105
1664.7690805831826 3929.5206128294667
1665.5114055714948 3993.1681162395134
1666.2535508535748 3960.3985332165894
1666.9955164762814 3801.861792680469
1667.7373024864555 3963.9617416671963
1668.478908930916 4025.2289487345406
1669.220335856462 3641.727057382827
1669.9615833098778 3923.390831750227
1670.7026513379296 3780.805132204447
1671.44353998736 3815.2405446570033
1672.1842493048916 3815.6975992223292
1672.9247793372379 3775.7988116616807
1673.6651301310812 3836.7351204229744
1674.4053017330934 3701.824194865113
1675.1452941899242 3813.424237162496
1675.885107548207 3521.2520743207497
1676.6247418545518 3706.765306044279
1677.3641971555535 3700.449223782107
1678.1034734977893 3698.901406881807
1678.8425709278108 3856.474830293715
1679.5814894921605 3814.9732385356488
1680.320229237359 3497.7399049155065
1681.0587902098978 3755.562561443665
1681.7971724562685 3723.4171762348606
1682.5353760229264 3725.009698548416
1683.2734009563173 3462.714487325552
1684.0112473028657 3463.411648380991
1684.7489151089794 3721.884334839868
1685.4864044210462 3556.0555307953014
1686.2237152854377 3543.409673290419
1686.960847748498 3533.825544713824
1687.6978018565642 3543.2409908145355
1688.434577655944 3584.0034829755214
1689.1711751929379 3691.6939187116013
1689.9075945138156 3577.498858604172
1690.6438356648396 3553.1790515873267
1691.3798986922448 3450.176670361114
1692.1157836422499 3533.9093767612094
1692.851490561059 3418.6667954221184
1693.587019494853 3521.6763471143813
1694.3223704897991 3396.2450068499975
1695.0575435920364 3359.480031709182
1695.792538847696 3523.316241335507
1696.527356302886 3510.4141086350355
1697.2619960036936 3322.03382482921
1697.9964579961907 3373.3790993003895
1698.730742326432 2980.0018378244836
1699.4648490404488 3127.9944852556573
1700.1987781842563 3325.2870457349954
1700.9325298038548 3382.1633854743873
1701.6661039452174 3347.5087988819337
1702.3995006543082 3413.4472681596403
1703.1327199770658 3329.8197553543787
1703.865761959416 3328.534602326895
1704.598626647261 3272.2661730494046
1705.3313140864866 3306.6084110847887
1706.0638243229587 3289.5673296423056
1706.7961574025303 3289.511963865805
1707.528313371029 3225.226950455985
1708.260292274268 3064.7013155440463
1708.9920941580403 3197.86954211049
1709.7237190681226 3194.917005825118
1710.4551670502697 3179.89939566355
1711.18643815022 2936.642890504361
1711.9175324136959 3313.9145949632707
1712.6484498863938 3102.347536040605
1713.379190614005 3003.440012043843
1714.109754642188 3302.489789965143
1714.8401420165883 3068.8511770169252
1715.570352782839 2991.1771478410046
1716.3003869865497 3193.3073728642894
1717.0302446733076 3120.2562425639762
1717.7599258886876 3051.505481630301
1718.4894306782444 3230.3099750401884
1719.2187590875183 2935.106487438412
1719.9479111620203 2943.5848212143537
1720.6768869472544 3047.8284971193057
1721.4056864887025 3167.2489274091718
1722.1343098318284 3052.3311265620387
1722.8627570220742 3020.4844970529275
1723.591028104871 3035.0949713753494
1724.3191231256242 2988.7766088130525
1725.0470421297232 2961.0104920655003
1725.7747851625427 3102.2907795293804
1726.5023522694337 3086.146290235595
1727.2297434957363 3047.91538792862
1727.9569588867635 2689.1715626448104
1728.6839984878152 2935.5865091210844
1729.4108623441734 2782.510566271416
1730.1375505011038 2915.657273999644
1730.8640630038426 2926.975174461316
1731.5903998976264 2907.7255867724825
1732.316561227657 2963.0032743759457
1733.0425470391274 2953.509040625579
1733.7683573772065 3011.682563405403
1734.4939922870508 2901.358697830699
1735.2194518137949 3037.8887262154735
1735.9447360025606 3009.3256769847153
1736.669844898439 2845.553157278786
1737.3947785465189 2931.5003086836305
1738.1195369918605 2777.5453668608793
1738.8441202795093 2840.932306917487
1739.5685284544943 2982.9766478124243
1740.292761561821 2948.993643644597
1741.0168196464838 3071.827045187914
1741.7407027534518 2951.056121694505
1742.464410927687 2926.770834935828
1743.187944214118 2877.218497547858
1743.9113026576688 2694.9246110744934
1744.634486303241 2877.5221992681118
1745.3574951957125 2858.35977166074
1746.0803293799509 2907.0860645526236
1746.8029889008048 2754.978070119045
1747.5254738031017 2931.203005063253
1748.2477841316504 2681.7097784309926
1748.969919931249 2815.7707026423786
1749.6918812466665 2721.132032138859
1750.4136681226646 3004.938327908886
1751.1352806039777 2949.1028560598456
1751.856718735331 2818.7548390729366
1752.5779825614281 2897.173039674458
1753.2990721269507 2912.8798633625875
1754.0199874765676 2827.4492300692746
1754.7407286549314 2614.7386332184833
1755.4612957066693 2843.795776897099
1756.1816886763954 2830.186577515177
1756.9019076087097 2933.476693689951
1757.6219525481865 2912.9952825204
1758.3418235393856 2911.7106150322134
1759.061520626854 2869.4362787640694
1759.7810438551096 2823.008523443591
1760.5003932686614 2807.8171885122106
1761.2195689119999 2820.068973866722
1761.938570829594 2706.894138133786
1762.657399065898 2777.4641348678856
1763.376053665348 2703.7679190360363
1764.0945346723602 2769.3274119803873
1764.812842131334 2717.9764981598964
1765.5309760866512 2623.4234623610473
1766.2489365826787 2789.71030250051
1766.9667236637597 2785.2670199383556
1767.684337374223 2668.024196968884
1768.401777758383 2608.3495301250127
1769.1190448605284 2721.1462495321953
1769.836138724937 2696.4402047191934
1770.5530593958665 2834.3150501334717
1771.2698069175603 2739.876774664109
1771.9863813342326 2877.268319287501
1772.702782690094 2912.9728877328334
1773.4190110293293 2766.960161147669
1774.1350663961111 2797.4101292556325
1774.8509488345844 2729.5251569051834
1775.5666583888924 2657.331277057835
1776.2821951031437 2823.013310888117
1776.9975590214362 2783.3653860383106
1777.7127501878585 3006.948980396538
1778.4277686464684 2716.0808425314003
1779.1426144413108 2712.624313599238
1779.8572876164162 2730.9894061128707
1780.571788215797 2737.516253597493
1781.2861162834415 2724.0953437691496
1782.0002718633277 2773.461259651542
1782.7142549994132 2655.435291023542
1783.4280657356376 2840.926731933666
1784.141704115922 2528.869846790815
1784.855170184177 2577.78391594338
1785.5684639842839 2669.4268973511844
1786.2815855601148 2587.2601477989137
1786.9945349555237 2631.9875204541804
1787.707312214343 2658.251939919175
1788.4199173803918 2762.5332532882303
1789.132350497468 2575.233794514988
1789.8446116093583 2620.830583435864
1790.556700759822 2684.592463446266
1791.2686179926077 2519.1413614419102
1791.9803633514493 2722.382854084607
1792.6919368800554 2644.69374640635
1793.4033386221236 2718.6319269444457
1794.1145686213295 2679.059026710617
1794.8256269213307 2825.895285521832
1795.536513565774 2655.2271719703517
1796.247228598284 2525.1861420324994
1796.9577720624693 2583.618916309656
1797.6681440019165 2720.1858597091946
1798.3783444602013 2721.2511960916554
1799.0883734808776 2617.6606074768106
1799.7982311074884 2643.0870760014614
1800.5079173835475 2517.4925152645415
1801.2174323525633 2627.559618743303
1801.9267760580187 2518.791652655115
1802.635948543386 2554.3727055685526
1803.3449498521113 2590.7407850855616
1804.0537800276325 2707.3623667694387
1804.7624391133668 2598.0855552774806
1805.47092715271 2533.4383319023063
1806.1792441890484 2539.23462990408
1806.8873902657433 2705.215648353061
1807.5953654261448 2631.5759764719082
1808.3031697135812 2437.408650313637
1809.0108031713662 2497.3508808951033
1809.71826584279 2590.599674694872
1810.425557771141 2543.1885571926073
1811.1326789996747 2832.1077545238722
1811.839629571632 2562.796445316447
1812.5464095302468 2543.223999053177
1813.2530189187182 2710.391587999852
1813.959457780249 2372.699437780352
1814.6657261580076 2665.073726640187
1815.371824095153 2516.6741774017023
1816.0777516348262 2587.143118249082
1816.78350882015 2411.1159465875726
1817.4890956942272 2432.412975020912
1818.1945123001533 2420.3328084935474
1818.8997586809928 2440.943252909051
1819.6048348798067 2513.5316421423795
1820.3097409396287 2402.5618597518587
1821.0144769034796 2482.6220758819463
1821.7190428143622 2412.4264052282842
1822.423438715261 2579.5973563740167
1823.1276646491478 2535.968845000881
1823.8317206589727 2533.347696587275
1824.5356067876692 2546.59265138999
1825.2393230781581 2386.6605896280153
1825.942869573335 2411.5498755559684
1826.646246316086 2512.958858671011
1827.3494533492758 2477.3586151950312
1828.052490715756 2573.0033163973862
1828.7553584583547 2560.222287307636
1829.458056619891 2641.768720119887
1830.1605852431585 2513.8332057073408
1830.8629443709433 2503.8246692740217
1831.5651340460063 2498.98612530192
1832.2671543110919 2533.0585287573094
1832.9690052089318 2450.0839616174944
1833.6706867822395 2476.066902791909
1834.3721990737104 2696.5648412278624
1835.0735421260233 2522.179659898321
1835.774715981841 2550.9734501813286
1836.4757206838058 2493.9868883223526
1837.1765562745459 2336.54661290814
1837.8772227966747 2371.3680224099453
1838.5777202927839 2542.4357223832994
1839.2780488054523 2483.5081943796513
1839.9782083772352 2437.4965572288665
1840.6781990506806 2465.970136686166
1841.378020868313 2491.723172830464
1842.0776738726418 2435.950942253285
1842.777158106157 2454.21613231822
1843.4764736113375 2444.667472490131
1844.1756204306403 2549.073936495067
1844.8745986065078 2459.339684366748
1845.5734081813607 2319.157756419538
1846.2720491976124 2354.8041768082926
1846.970521697649 2338.7249799606266
1847.6688257238511 2472.6814031196473
1848.3669613185684 2501.659100471226
1849.0649285241452 2281.980528197143
1849.7627273829057 2348.2510622778595
1850.460357937156 2556.0394512727466
1851.1578202291857 2266.998858827396
1851.8551143012664 2454.8183312555016
1852.5522401956569 2569.0263641862107
1853.2491979545957 2380.688814310526
1853.9459876203055 2262.5009246706977
1854.6426092349902 2279.88504191314
1855.3390628408451 2470.8875499031005
1856.0353484800362 2444.0960028344616
1856.7314661947203 2423.4693937299207
1857.4274160270397 2319.9377695723992
1858.123198019115 2353.771368078837
1858.8188122130487 2392.850414150577
1859.5142586509319 2389.534802922176
1860.209537374838 2413.066490267784
1860.9046484268183 2304.754774682709
1861.599591848917 2416.747032062113
1862.294367683151 2170.0848391641653
1862.988975971528 2396.8331678334953
1863.6834167560355 2327.2083050494903
1864.3776900786452 2513.4279230768634
1865.0717959813119 2361.869058950093
1865.7657345059724 2472.554741604763
1866.4595056945564 2524.1325485025563
1867.1531095889586 2429.178630741689
1867.846546231076 2441.649756750453
1868.5398156627743 2532.9350417493006
1869.2329179259123 2454.5795231841
1869.9258530623283 2505.758502376837
1870.618621113843 2357.916996307268
1871.3112221222636 2286.1110433543954
1872.0036561293764 2294.9217854558765
1872.695923176956 2462.7843694036883
1873.3880233067594 2481.3407640333744
1874.0799565605212 2245.5347227824345
1874.7717229799673 2344.1673625754843
1875.4633226068036 2388.335772620476
1876.1547554827175 2473.209495605924
1876.8460216493859 2326.866376138981
1877.5371211484617 2437.470579544083
1878.2280540215852 2403.1744679387207
1878.9188203103804 2305.0505404454602
1879.6094200564548 2423.7961074717155
1880.299853301396 2232.3849508683134
1880.9901200867826 2476.299650846072
1881.6802204541673 2475.4857406005763
1882.3701544450942 2352.0072059752138
1883.059922101087 2373.2551403032585
1883.7495234636517 2404.281418686025
1884.4389585742792 2259.0024192613696
1885.1282274744517 2341.603156714082
1885.8173302056166 2665.9339976180136
1886.506266809225 2336.6965791990515
1887.195037326701 2300.786168196596
1887.8836417994517 2375.6559620700837
1888.5720802688702 2490.922074740945
1889.260352776333 2247.6123107884696
1889.9484593632042 2340.6804567584904
1890.63640007082 2242.1647067432928
1891.3241749405151 2203.6236670286307
1892.0117840135954 2332.90980716535
1892.6992273313572 2203.691060581011
1893.3865049350788 2280.143260684511
1894.0736168660223 2549.2437311424196
1894.7605631654333 2185.588670243716
1895.4473438745408 2259.271834856601
1896.133959034556 2394.2632183619203
1896.820408686679 2321.767667244015
1897.506692872088 2315.9210127029173
1898.192811631945 2347.967788050941
1898.8787650073991 2366.5177612677835
1899.5645530395832 2486.4740334351222
1900.2501757696118 2444.7005663128807
1900.9356332385796 2174.7773706475045
1901.620925487574 2380.539617689706
1902.3060525576602 2423.5179496831265
1902.9910144898859 2418.6099365541368
1903.6758113252872 2208.358951622048
1904.3604431048789 2341.7987805665334
1905.0449098696663 2251.4390735555535
1905.7292116606295 2305.018883400001
1906.4133485187394 2338.6171453080588
1907.0973204849488 1999.2608665132107
1907.7811276001976 2316.21412064382
1908.4647699053967 2308.536793883168
1909.1482474414588 2198.9598521098715
1909.8315602492694 2142.3004821232516
1910.5147083696957 2209.44124272102
1911.1976918436012 2309.6778798892165
1911.880510711815 2184.511017144899
1912.5631650151681 2255.2100941821777
1913.2456547944657 2181.2666375313843
1913.927980090495 2242.7517539594214
1914.6101409440362 2273.8716485406662
1915.2921373958416 2159.14108662934
1915.9739694866603 2265.1638809389847
1916.655637257214 2391.7285618756387
1917.3371407482136 2371.329651200359
1918.0184800003572 2317.5339581805815
1918.6996550543154 2169.9756709085423
1919.3806659507554 2262.3649969259077
1920.0615127303208 2309.276096876573
1920.7421954336423 2308.762649149633
1921.4227141013343 2203.156739895253
1922.103068773993 2353.0749799394416
1922.783259492202 2210.161667794874
1923.4632862965227 2188.165945489866
1924.1431492275078 2141.1039162116726
1924.8228483256917 2254.391793916903
1925.5023836315922 2149.7083440281326
1926.1817551857057 2058.955588311135
1926.8609630285227 2237.1707545611744
1927.5400072005123 2318.5440631482456
1928.218887742125 2075.471895577218
1928.8976046938005 2057.812601378696
1929.5761580959588 2309.3606613672746
1930.2545479890086 2213.352105526306
1930.9327744133352 2119.115822899587
1931.6108374093164 2256.1684481602924
1932.2887370173066 2285.217800739487
1932.9664732776473 2010.6067862802752
1933.6440462306673 2312.1700019541795
1934.3214559166754 2050.0384214182673
1934.9987023759659 2182.7817270368732
1935.675785648813 2211.5752222566366
1936.3527057754836 2075.446127154024
1937.029462796223 2267.460384113184
1937.70605675126 2212.8923635972856
1938.3824876808085 2158.2617275271045
1939.058755625072 1946.427792958218
1939.7348606242267 2331.9146055210904
1940.4108027184448 2179.0223813921393
1941.0865819478713 2377.4285624496865
1941.7621983526478 1940.086021174891
1942.4376519728921 2053.3976535181064
1943.1129428487038 2177.4776119562925
1943.7880710201734 2193.315402792573
1944.4630365273733 2306.17893180139
1945.1378394103576 1994.990858634815
1945.8124797091714 1964.746884754669
1946.4869574638324 1934.374152981582
1947.161272714353 2187.041636217132
1947.8354255007234 2180.3681993347996
1948.5094158629272 2095.3554804973046
1949.1832438409183 2364.23640641546
1949.8569094746435 2272.4341582108837
1950.530412804037 2135.8815476705795
1951.2037538690092 2222.1750351753794
1951.8769327094578 2017.3400403618386
1952.5499493652678 2192.0189929202957
1953.222803876306 2134.4806440258717
1953.895496282421 2157.5288678670136
1954.5680266234522 2077.264235565769
1955.2403949392155 2206.327220289751
1955.9126012695142 1970.7755242964745
1956.5846456541403 2231.5876040373773
1957.2565281328643 1951.8206080210543
1957.9282487454457 2101.664181089066
1958.5998075316202 2314.3842584703043
1959.27120453112 2183.0690222289554
1959.9424397836501 2056.5144325952274
1960.613513328908 2232.6393387861976
1961.2844252065697 2231.487563589336
1961.9551754563017 2152.718860008917
1962.6257641177453 2178.854436467637
1963.29619123054 2156.7514355732474
1963.966456834296 1996.7944651889925
1964.6365609686181 1951.7224701030732
1965.306503673086 2112.355152878841
1965.976284987275 2138.1171834775278
1966.645904950734 2060.333224812786
1967.315363603002 2120.4837008383843
1967.9846609836077 2062.182802921393
1968.6537971320486 2142.9141837948323
1969.3227720878222 2095.244889599692
1969.9915858904042 1965.5244009042956
1970.660238579252 2165.7707639627815
1971.3287301938108 2141.9179997040924
1971.997060773514 1836.4012282761098
1972.665230357772 2154.184770032296
1973.3332389859843 1962.6535106120507
1974.0010866975335 2000.9319088650216
1974.6687735317864 2164.358169912807
1975.3362995280932 2217.8661750535225
1976.003664725793 2162.0687107691606
1976.6708691642052 1837.5502503362993
1977.3379128826364 1996.0141880861477
1978.004795920373 2104.7681954718328
1978.6715183166925 2423.770788895393
1979.3380801108524 2001.5114092566098
1980.0044813420973 2054.5731699980142
1980.6707220496555 2073.885428261175
1981.3368022727373 2061.422006524558
1982.0027220505417 2151.069300784453
1982.66848142225 1944.8918201736585
1983.3340804270283 1979.8057445542297
1983.999519104027 2145.1840037308384
1984.6647974923835 2213.58636032805
1985.329915631215 2067.145370041147
1985.99487355963 2279.2973698761202
1986.6596713167146 2151.5946020040074
1987.3243089415428 2132.353523532431
1987.9887864731754 2239.039595783482
1988.6531039506553 2038.1295491525616
1989.3172614130071 2196.4010974663097
1989.9812588992481 2233.6906778461857
1990.645096448372 2140.582009471746
1991.3087740993633 2121.2592612665735
1991.9722918911848 1965.1074288355892
1992.635649862792 2025.7795835739357
1993.2988480531185 2254.1500033098646
1993.9618865010852 2317.3643446502815
1994.6247652455968 2142.7222882376695
1995.287484325545 1988.1915466997082
1995.9500437798033 2156.669127365388
1996.6124436472292 1859.0565329379551
1997.2746839666706 2074.9236639385467
1997.936764776954 2178.7573790601627
1998.598686116895 2000.0176840038432
1999.2604480252903 2220.881902853602
1999.9220505409212 1908.1260743456182
2000.5834937025593 1971.8895886145401
2001.2447775489582 2046.9746518081502
2001.9059021188514 2070.5366323142007
2002.5668674509616 1913.5292322460234
2003.2276735839987 1988.2655842373692
2003.8883205566508 2056.7936126409186
2004.5488084075987 1856.702103143672
2005.2091371755014 2135.0790731663687
2005.8693068990033 2006.2619878106993
2006.5293176167397 2071.048050583411
2007.1891693673224 1983.7681179225492
2007.848862189354 1826.9893889628827
2008.5083961214223 1972.2856375078595
2009.1677712020955 1980.791314640229
2009.8269874699254 1832.2447932799773
2010.4860449634598 2091.0237270812095
2011.1449437212177 1802.6018309441934
2011.8036837817108 2123.9254750701903
2012.4622651834325 2160.5008715097183
2013.1206879648653 2302.1071912422776
2013.7789521644736 2144.964859344806
2014.4370578207036 1797.0271689668364
2015.0950049719922 1906.1224474628107
2015.7527936567585 2064.0151014256912
2016.4104239134067 2143.086456830702
2017.067895780323 2208.5600958961218
2017.725209295886 1754.0598469397378
2018.3823644984514 2047.1173209103067
2019.0393614263648 1998.9236972400636
2019.6962001179545 1770.8248836793362
2020.3528806115355 2035.215548284155
2021.0094029454067 1788.4227769400586
2021.6657671578487 1892.3410108810706
2022.321973287133 1998.7528739838788
2022.9780213715148 1927.771019060859
2023.6339114492293 2000.4209635132163
2024.2896435585026 2031.516166852144
2024.9452177375442 1950.9014772929263
2025.600634024544 2071.673434895557
2026.2558924576842 2027.6993983894572
2026.9109930751292 2095.006867367341
2027.565935915025 1811.4973364641696
2028.2207210155066 2104.3848690851423
2028.8753484146964 1945.9567839631509
2029.529818150695 1942.6417748237768
2030.1841302615903 2015.5399142055005
2030.8382847854573 1922.4563958319006
2031.4922817603601 1839.8352087475246
2032.1461212243357 2009.7841652298018
2032.7998032154192 1846.5397281558537
2033.4533277716218 1965.912665019734
2034.1066949309443 1800.732292072731
2034.7599047313688 2039.76785070435
2035.4129572108704 2079.876554554559
2036.0658524074006 2110.079722980666
2036.7185903589016 2047.7682840326677
2037.3711711032956 2128.8510534052416
2038.023594678496 1920.9744125196648
2038.675861122394 1879.7751535115076
2039.3279704728757 1896.2119924029787
2039.9799227678031 1751.1423355712498
2040.6317180450278 1920.8035088252775
2041.2833563423865 1993.2325688810815
2041.9348376977014 2079.1718094790585
2042.5861621487784 1908.0752609161948
2043.2373297334088 1969.3777267825906
2043.8883404893695 1946.9630383063693
2044.5391944544208 2135.4035477622133
2045.1898916663158 1873.4795693422366
2045.8404321627804 2131.157239685563
2046.4908159815368 1787.8350544164598
2047.1410431602853 2038.7583318142879
2047.7911137367173 1759.6742660091957
2048.441027748504 1941.1070069683421
2049.090785233302 1855.6209782020196
2049.7403862287592 1951.8580782635777
2050.389830772503 2087.502835203548
2051.0391189021466 1821.1214878450883
2051.688250655294 1770.3858684394825
2052.337226069527 1831.0609895844814
2052.986045182417 1922.350173957496
2053.634708031521 1743.5931950061354
2054.283214654375 1657.6736621778618
2054.931565088511 1571.674243232551
2055.579759371436 1892.6382024438317
2056.2277975406523 1852.3803794654286
2056.8756796336384 2055.0718397479427
2057.5234056878617 1702.0821063767405
2058.1709757407752 1814.9718872271205
2058.8183898298194 1859.7390168267314
2059.465647992416 1838.6141835985884
2060.1127502659747 1918.1825317938049
2060.759696687888 1975.0397678715376
2061.4064872955405 2199.6559309676027
2062.053122126292 2070.776536749347
2062.699601217497 2030.970272547709
2063.345924606485 1991.2754350524483
2063.992092330587 2075.8909389801793
2064.638104427102 1907.5887785101568
2065.283960933324 2025.2975055456802
2065.92966188653 2005.7029822948693
2066.5752073239855 1852.0304852283884
2067.2205972829397 1938.092567499125
2067.86583180062 1896.8706877367204
2068.5109109142522 1796.4702535251004
2069.15583466104 1919.6721455379861
2069.8006030781708 2042.9906474151114
2070.445216202821 1936.8339339939932
2071.089674072153 2182.784007989941
2071.7339767233116 1849.6407584985616
2072.3781241934303 1853.918360357106
2073.0221165196253 2059.137187062598
2073.6659537390024 1848.923508468591
2074.3096358886505 1987.0768146458263
2074.953163005637 1714.995580788709
2075.596535127028 1760.6840484447323
2076.2397522898664 1835.0804458592206
2076.882814531182 1947.3824055143548
2077.5257218879924 2091.9207652154482
2078.1684743973 1929.2249772377158
2078.8110720960885 1784.6591144267375
2079.453515021336 1953.3969833130916
2080.095803209997 2022.307795396379
2080.7379366990135 1829.0966468819777
2081.37991552532 1874.8944398983767
2082.0217397258275 1964.4474971783197
2082.6634093374414 1824.977782780275
2083.3049243970418 1918.1559168772114
2083.9462849415067 1742.9696632182986
2084.587491007689 2021.0601419342627
2085.2285426324324 1956.8281081899415
2085.869439852564 2004.6857868374277
2086.510182704902 1673.360209345949
2087.1507712262483 1917.8954076406771
2087.791205453381 1814.1129154809673
2088.4314854230743 1793.5944230807938
2089.0716111720867 1908.7828911735862
2089.7115827371617 1662.9958375479735
2090.351400155023 1702.2077911501135
2090.991063462385 1741.57594276631
2091.6305726959527 1751.4219418976365
2092.2699278924047 2081.954822684077
2092.9091290884153 1785.4185362409694
2093.548176320641 1773.340017824435
2094.187069625721 2057.1430421328987
2094.8258090402887 1699.9585595363533
2095.464394600951 1928.0449697606298
2096.102826344313 1756.5083055955015
2096.741104306955 2020.4184612562356
2097.379228525453 1689.8576162870522
2098.017199036358 1717.6386902053114
2098.6550158762147 1922.2558177682938
2099.2926790815527 1721.4136340092446
2099.9301886888825 1948.8751843107755
2100.5675447347076 2004.1614297349595
2101.2047472555114 2115.1857507102764
2101.841796287761 1721.6606428634677
2102.47869186792 1871.7776491984544
2103.1154340324265 2030.5506942595057
2103.752022817709 1797.3818648576714
2104.388458260184 1902.8934861695896
2105.024740396251 1934.790925173998
2105.660869262292 1845.1238555690138
2106.296844894685 1966.644700874966
2106.93266732978 1945.0321219288078
2107.5683366039284 1589.4691442014077
2108.2038527534532 1768.7726059462736
2108.8392158146726 1916.1556810380735
2109.4744258238843 1949.8108876197693
2110.1094828173755 1680.4369443103537
2110.744386831422 2083.7144545377773
2111.3791379022787 1897.0972629516887
2112.01373606619 1848.88927024199
2112.648181359389 1813.847127253882
2113.28247381809 1845.2737922845977
2113.916613478492 1761.5346407587979
2114.550600376786 1914.2028462933406
2115.1844345491445 1980.841282271355
2115.818116031729 1833.3862931759572
2116.451644860679 1922.995605722816
2117.085021072133 1794.4629549146423
2117.718244702204 1607.0166794420275
2118.3513157869984 1840.5134958219437
2118.984234362604 1741.8396979638571
2119.617000465092 1775.059226388726
2120.249614130529 1906.2385130784867
2120.8820753949585 1970.2356127486044
2121.5143842944162 1764.6093937842336
2122.14654086492 1631.1661257459577
2122.7785451424734 2032.087645158119
2123.4103971630702 2092.1453420626426
2124.042096962681 2152.572842192168
2124.6736445772767 1715.1731829204139
2125.305040042802 1558.2208547057612
2125.936283395191 1743.3380016025858
2126.567374670365 1698.575755309896
2127.198313904233 1688.2538371454684
2127.8291011326855 1942.0345228916462
2128.4597363916037 1847.0598207742728
2129.0902197168507 1761.6462371374387
2129.720551144279 1765.5129217943868
2130.3507307097225 1821.5480183100913
2130.980758449008 1968.4910686622673
2131.6106343979427 1686.6572133664383
2132.2403585923203 1915.8250987256117
2132.8699310679276 1748.3107684897896
2133.499351860526 1705.4568306915764
2134.1286210058715 1933.6339596279795
2134.7577385397053 1692.1642448733608
2135.3867044977487 1718.1226087411028
2136.0155189157176 1850.5760206295326
2136.644181829308 1838.074955469256
2137.2726932742025 1666.5259041939782
2137.901053286074 1898.617602534913
2138.5292619005777 1714.4623196246255
2139.1573191533535 1694.610863045277
2139.7852250800315 1716.2563046082437
2140.4129797162295 1737.9745300764218
2141.0405830975433 1677.8790660096674
2141.6680352595613 2075.406336098895
2142.2953362378576 1823.7158990702105
2142.9224860679915 1537.443519320528
2143.549484785508 1695.7590064026645
2144.1763324259373 2023.9949047248356
2144.803029024799 1825.7165341932166
2145.429574617594 1502.7013925815847
2146.0559692398165 1901.2125592705238
2146.682212926942 1653.6800092893645
2147.308305714432 1696.7288717422048
2147.9342476377333 1789.3321782714854
2148.5600387322847 1895.9979796857388
2149.185679033506 1754.5348442110171
2149.8111685768017 1995.2455597040782
2150.4365073975678 1881.9956290673483
2151.061695531187 1850.4437188830966
2151.686733013021 1729.5898132587495
2152.311619878423 1782.5211859406427
2152.9363561627342 1955.91556655717
2153.560941901278 1647.7878420141788
2154.1853771293663 1851.9491048384393
2154.809661882293 1948.4164714129488
2155.433796195348 1862.372916412267
2156.0577801037944 1881.3728404745566
2156.681613642895 1738.2016310669642
2157.3052968478896 1801.8857140940556
2157.928829754006 1681.5999512241228
2158.552212396462 1710.590717694034
2159.1754448104566 1743.5919157207304
2159.7985270311783 1627.3292366014718
2160.4214590938027 1505.931752372191
2161.0442410334927 1574.1946134217014
2161.6668728853874 1854.500943953597
2162.289354684628 1777.3176361089222
2162.911686466332 1879.8609530812623
2163.533868265602 1920.39671029799
2164.1559001175337 1976.4860254681819
2164.7777820572046 1845.792579444341
2165.399514119681 1448.6978459775432
2166.021096340013 1374.466816018833
2166.6425287532384 1561.4930455202925
2167.263811394385 1748.9178386281706
2167.8849442984574 1632.0236356440687
2168.505927500455 1774.545186060535
2169.126761035366 1826.1944831797275
2169.7474449381552 1797.110551039215
2170.367979243778 1563.9122404454497
2170.9883639871823 1752.1568534262763
2171.608599203293 1551.157150634868
2172.2286849270276 1897.5894951788705
2172.8486211932886 1821.1600580225374
2173.4684080369625 1735.2359719980784
2174.0880454929265 1565.9159745038912
2174.7075335960417 1669.5772201961947
2175.3268723811543 1917.659780253912
2175.9460618831 2018.07739126411
2176.565102136701 1637.4743225742461
2177.1839931767627 2061.8313037444927
2177.802735038078 1683.0151833770717
2178.421327755432 1781.098885675873
2179.0397713635866 1795.4300293830863
2179.658065897298 1497.4190348470552
2180.276211391305 1710.3947414838342
2180.8942078803357 1705.7196854531605
2181.5120553991 1636.6694988851073
2182.129753982299 1806.1042611210555
2182.7473036646206 1783.9631809832717
2183.3647044807367 1698.6519010436562
2183.9819564653044 1755.8324720907083
2184.599059652968 1859.0156635144085
2185.216014078367 1882.8935132578183
2185.832819776113 1521.9015368535038
2186.4494767808137 1742.694714434442
2187.065985127063 1894.802199585455
2187.682344849436 1712.3997482923223
2188.298555982501 2082.7618740387497
2188.9146185608097 1943.3428316156594
2189.530532618901 1872.9192985275433
2190.1462981912937 1652.8619781330501
2190.761915312507 1689.6240495220216
2191.377384017036 1883.1142413417099
2191.9927043393654 1860.3349549967631
2192.6078763139667 1489.6983252689022
2193.2228999753006 1716.518799868501
2193.837775357808 1485.87347099784
2194.452502495922 1718.6543970703701
2195.0670814240602 1698.4868192173951
2195.6815121766285 1792.0726493692855
2196.2957947880186 1857.0152325643467
2196.9099292926057 1743.4795374290802
2197.523915724758 1878.6849262848918
2198.137754118825 1687.9217589485193
2198.7514445091456 1932.3736623541631
2199.3649869300443 1704.1374116807135
2199.9783814158327 1768.3343360842196
2200.5916280008096 1877.0077615388395
2201.2047267192593 1703.4535385946376
2201.8176776054515 1872.0104381380854
2202.430480693649 1541.1549155156022
2203.0431360180955 1754.4686323485312
2203.6556436130195 1670.4658321643915
2204.268003512645 1682.4809186610105
2204.8802157511727 1789.5304802562564
2205.492280362796 2012.994852886341
2206.1041973816937 1616.9470031635244
2206.715966842032 1724.4783699004547
2207.3275887779655 1451.7281641101433
2207.93906322363 1585.8066740403904
2208.550390213153 1659.4678930502462
2209.1615697806465 1680.8735792082055
2209.7726019602105 1634.3707166079216
2210.3834867859277 1413.9440749789687
2210.9942242918787 1818.562740534958
2211.6048145121167 1714.8641284845623
2212.2152574806914 1921.9086684711965
2212.825553231638 1755.8983549819302
2213.435701798975 1712.913642864829
2214.045703216707 1670.0686006473225
2214.655557518832 1665.6376489459938
2215.2652647393297 1400.5978123212597
2215.874824912169 1542.5508273142818
2216.4842380713 1643.793962567427
2217.09350425067 1593.1906507667832
2217.7026234842033 1414.318321884099
2218.311595805819 1721.297680060159
2218.9204212494133 1432.0860461924692
2219.52909984888 1741.0650246905639
2220.137631638092 1835.222880012146
2220.7460166509154 1929.459324663748
2221.354254921198 1862.4814042266705
2221.9623464827764 1802.5053834865353
2222.5702913694713 1740.9693063415045
2223.178089615096 1575.7980645528291
2223.7857412534486 1629.0770411302974
2224.39324631831 1666.598399424381
2225.000604843457 1572.9411038517321
2225.607816862641 1858.5765079534376
2226.214882409611 1652.0989471273908
2226.8218015180973 1763.1544214206092
2227.4285742218217 1541.5938467148235
2228.0352005544864 1753.7883129223258
2228.6416805497847 1760.5436166683837
2229.248014241399 1610.8089702155971
2229.8542016629945 1563.8283685434221
2230.460242848223 1682.1492626694003
2231.0661378307304 1722.2985796674177
2231.671886644139 1750.9286576763166
2232.277489322065 1901.6668167006897
2232.8829458981127 1955.2191619962693
2233.48825640587 2008.8507578835015
2234.0934208789095 1925.7348089352995
2234.6984393507955 1912.4590880597611
2235.3033118550793 1696.6024171481022
2235.9080384252975 1705.1361560674482
2236.5126190949723 1601.3392418580515
2237.1170538976166 1333.7958518704615
2237.721342866729 1340.7339553597321
2238.32548603579 1668.166615280533
2238.9294834382763 1627.0419215543393
2239.533335107646 1465.6385129893274
2240.1370410773434 1622.27757091406
2240.740601380803 1694.0108219731258
2241.3440160514474 1737.9592853589213
2241.9472851226783 1565.863494744905
2242.550408627896 1598.0648503623966
2243.1533866004793 1855.6920299569047
2243.756219073799 1664.1857069757261
2244.3589060812064 1644.9898159817672
2244.961447656049 1588.8691571109075
2245.5638438316564 1724.8341168577795
2246.166094641343 1827.0707396863686
2246.7682001184166 1520.8152302619167
2247.3701602961664 1749.1239160593861
2247.971975207871 1770.145900431024
2248.5736448867974 1718.3943825609913
2249.175169366197 1864.2011856850277
2249.7765486793123 1758.696210549142
2250.3777828593684 1663.3182745219171
2250.9788719395783 1949.1930468857652
2251.579815953146 1620.949500486164
2252.1806149332606 1442.9155617224242
2252.781268913097 1661.8025635930976
2253.381777925817 1553.7381685492194
2253.9821420045737 1378.2736032071557
2254.5823611825035 1697.7634171236464
2255.1824354927303 1707.8411634738845
2255.782364968365 1694.0167397469108
2256.38214964251 1680.2259657941238
2256.9817895482483 1432.4633275112178
2257.5812847186553 1712.804106594832
2258.180635186791 1431.7349441163647
2258.779840985704 1805.8672157898304
2259.37890214843 1593.7292557055912
2259.97781870799 1526.6068246607197
2260.5765906973957 1459.3768812645726
2261.175218149645 1557.2627824306194
2261.773701097718 1485.3770276625346
2262.3720395745895 1413.3275863090394
2262.970233613216 1114.9267157244562
2263.568283246548 1477.6668064373007
2264.1661885075137 1686.3458570059988
2264.763949429038 1679.9605997817139
2265.3615660440246 1526.3558449413292
2265.959038385374 1487.9430479706557
2266.5563664859637 1610.5810998907957
2267.153550378669 1585.973862674477
2267.7505900963424 1524.9043273164687
2268.3474856718312 1639.0201591352375
2268.9442371379664 1797.681047882133
2269.5408445275643 1456.0932050141294
2270.1373078734377 1553.9053943979684
2270.7336272083758 1592.2734476440469
2271.32980256516 1678.1788762287208
2271.925833976562 1719.7684095478137
2272.5217214753357 1807.4349549707745
2273.117465094223 1448.2857579870672
2273.7130648659586 1531.1916955432685
2274.308520823257 1631.1798332431724
2274.903832998827 1803.7590597073527
2275.4990014253563 1760.78828848214
2276.094026135528 1717.7020879536115
2276.6889071620117 1597.2358955128882
2277.2836445374614 1607.9049540937754
2277.878238294519 1547.322515803612
2278.472688465812 1872.1771479734532
2279.066995083962 1579.1064369155763
2279.6611581815705 1541.4880944905947
2280.255177791232 1596.965934083216
2280.8490539455233 1904.229037226558
2281.442786677013 1828.1251428443024
2282.0363760182554 1780.0193706080404
2282.6298220017943 1551.263495464666
2283.223124660155 1735.3330593528372
2283.816284025859 1621.7502882993654
2284.4093001314086 1647.0635384625057
2285.002173009292 1569.2064786366793
2285.5949026919952 1816.9860044244663
2286.1874892119777 1488.1822820591196
2286.7799326016993 1442.739447844185
2287.3722328936 1397.106767768849
2287.964390120109 1505.457569937072
2288.556404313642 1656.4195194448998
2289.1482755066027 1575.8741693566408
2289.7400037313873 1673.3555959149883
2290.3315890203703 1696.7687391905365
2290.9230314059205 1576.4771509575558
2291.5143309203904 1456.0395533054814
2292.1054875961236 1316.47745630842
2292.6965014654506 1662.9988285388645
2293.287372560684 1729.6609755564546
2293.878100914131 1774.3310331730195
2294.468686558086 1719.0549866970664
2295.059129524827 1778.2133715284454
2295.649429846617 1727.6130833568436
2296.239587555716 1829.8840233571748
2296.8296026843636 1632.2833473898108
2297.419475264791 1716.9079092115444
2298.0092053292137 1908.693382552361
2298.598792909839 1556.6927626827069
2299.1882380388597 1463.4220849574144
2299.777540748455 1640.713363718381
2300.3667010707904 1810.1215222548406
2300.9557190380256 1562.5113782174358
2301.544594682302 1706.226120360383
2302.1333280357503 1384.31448388326
2302.721919130485 1698.424786509747
2303.3103679986198 1701.0664176774667
2303.898674672242 1692.6097474697976
2304.486839183437 1446.007351222264
2305.0748615642697 1732.674865798634
2305.6627418468015 1476.3097473050916
2306.2504800630704 1515.1037306142919
2306.8380762451143 1558.882272402166
2307.425530424949 1643.2475039267943
2308.012842634582 1727.7935744541865
2308.6000129060103 1590.2000482410108
2309.187041271214 1749.6006281146929
2309.773927762164 1774.4000215221047
2310.3606724108213 1615.2921021627783
2310.9472752491274 1620.5119147330388
2311.5337363090184 1573.5415778385411
2312.120055622414 1493.7778215303322
2312.706233221221 1413.8185539673423
2313.2922691373424 1318.8975855383908
2313.8781634026564 1433.7130336558837
2314.463916049037 1548.7870065264744
2315.049527108342 1313.839701218889
2315.6349966124235 1590.3447364563458
2316.2203245931123 1725.7093203913541
2316.8055110822315 1518.0963335230463
2317.3905561115935 1630.4855327091022
2317.9754597129977 1456.9875248276428
2318.560221918229 1672.217016329439
2319.1448427590603 1597.8810090928323
2319.729322267256 1788.9734029443468
2320.313660474563 1552.7377879176777
2320.8978574127195 1770.2174643129845
2321.481913113452 1780.934142396168
2322.0658276084705 1394.6738246517407
2322.6496009294806 1511.931083660532
2323.233233108165 1790.1505635896112
2323.8167241762058 1754.1327142913851
2324.4000741652617 1652.5084463502885
2324.983283106987 1868.0095167751547
2325.5663510330232 1754.205023106692
2326.1492779749933 1922.815122278043
2326.7320639645204 1558.9281955667816
2327.3147090332004 1399.9797106090332
2327.897213212629 1583.309130796922
2328.4795765343843 1766.7705297686734
2329.0617990300307 1707.0107952522333
2329.643880731124 1533.8820269728
2330.22582166921 1766.7862210644694
2330.807621875816 1815.5370701881482
2331.3892813824623 1527.1911901616088
2331.9708002206517 1525.192971236152
2332.5521784218818 1822.2003144909147
2333.133416017634 1691.469156623622
2333.7145130393765 1803.877511254073
2334.295469518571 1781.9710032340768
2334.876285486658 1756.6271957876284
2335.456960975076 1458.0607883995847
2336.037496015242 1762.263114743607
2336.6178906385667 1699.253355124744
2337.198144876451 1526.477697178662
2337.778258760278 1353.3057999496198
2338.3582323214214 1215.7871129417586
2338.938065591243 1492.2790379889207
2339.517758601087 1769.3519107323123
2340.0973113822965 1535.195966521885
2340.676723966193 1364.3094737521217
2341.255996384094 1595.3564019750656
2341.835128667295 1669.5745515123356
2342.4141208470883 1621.0951910355695
2342.992972954751 1317.9229937852717
2343.5716850215467 1558.5106511073968
2344.1502570787306 1228.5755508484767
2344.7286891575386 1497.228921848943
2345.3069812892045 1663.6933757043832
2345.885133504944 1753.754530982464
2346.4631458359618 1584.3856266486619
2347.04101831345 1660.3568396114358
2347.6187509685915 1656.1617497593666
2348.196343832553 1578.6609779825956
2348.7737969364935 1432.9931994694832
2349.351110311558 1648.7320587264062
2349.9282839888765 1634.0874559021026
2350.5053179995757 1507.5595465487331
2351.0822123747585 1527.9526982852674
2351.658967145526 1664.0783255540532
2352.2355823429643 1541.0416287134415
2352.812057998144 1698.6558580473059
2353.3883941421263 1608.9731577683688
2353.9645908059647 1519.1822942973868
2354.540648020693 1753.1615669803682
2355.116565817336 1469.591803523632
2355.6923442269126 1427.109280154922
2356.2679832804224 1361.564367083673
2356.8434830088518 1133.1837622506926
2357.41884344318 1185.679606789603
2357.994064614377 1238.2283683320682
