#exp_cfg={"servo_angle": 0.0, "laser_lim": 100.0, "servo_angle_to": 18.0, "laser_wup": 0.0, "bt_dev": "EnSpectr-25AE3", "laser_wdn_max": 0.0, "frames": 10.0, "servo_used": 0, "servo_calib_use": 0, "laser_wdn_min": 0.0, "servo_pix_from": 90.0, "cooler_tout": 300.0, "servo_angle_from": 0.0, "servo_calib": "[-1.9174921013161362e-09, 3.9322238269163779e-05, -0.27385609119055809, 653.59552119713567]", "laser_autoctl": 0, "servo_pix_to": 3682.0, "laser_pw": 100.0, "cooler_on": 0, "laser_volt": 4.0, "cooler_autoctl": 0, "cooler_curr": 70.0, "cooler_startup": 10.0, "laser_fixed_pw": 0, "gain": 1.3, "offset": 2.53059635486, "servo_calib_degree": 3.0, "laser_curr": 55.0, "shutter": 8200.0, "servo_calib_step": 1.0, "laser_fixed_curr": 0, "exp": 2000.0, "ccd_volt": 4.7, "bt_addr": "00:06:66:62:5A:E3", "servo_delay": 500.0, "laser_autooff": 1}
#proc_cfg={"flat_auto_wnd": 200.0, "flat_auto_fr": 200.0, "flat_auto_shift": 5.0, "yconv": 1, "flatten": 1, "flatten_strength": 100.0, "xfrom": 300.0, "auto_max_frame": 2000.0, "auto_signal": 48000.0, "flat_auto_tol": 0.1, "autoclip": 1, "xrel_range": 0.0, "flat_auto_to": 4000.0, "intensity_adj": 1.0, "xrel": 7852.0, "rmhot": 1, "flat_auto_slit": 4.999999999999997, "auto_ini_exp": 300.0, "auto_off": 0, "xto": 2860.0, "flat_auto_ref": "", "flat_auto_rank": 1, "autobackg": 0, "xrel_adj": 0.0, "auto_black_lvl": 1, "base_wnd": 100.0, "sub_baseline": 0, "xconv": 2, "auto_max_exp": 1000.0, "auto_total_exp": 10000.0, "auto_exp": 0, "rmripple": 0, "black_lvl": 8225.4125, "shutter_clip_adj": 0.0, "auto_bckg": 0, "flat_auto_thr": 0.9, "subbackg": 1}
316.8218498245369 16207.611398448
317.89969571804795 16139.805380278316
318.977263876126 16073.687792282431
320.05455438786703 16009.826003037204
321.1315673423287 16014.948485686433
322.2083028285215 15895.898434596067
323.2847609354267 15827.125611497273
324.3609417519747 15632.072131887579
325.43684536705587 15821.203474928494
326.5124718695279 15619.525871511296
327.58782134820103 15578.823457179988
328.66289389184385 15464.6852801328
329.7376895891921 15378.799059219531
330.8122085289342 15434.012046235865
331.88645079971866 15355.119688631155
332.9604164901575 15072.228825094859
334.03410568881554 15111.555288930711
335.1075184842266 15188.876270229212
336.18065496487543 14991.783521903233
337.2535152192122 14954.660009338491
338.32609933564163 15072.082119874583
339.39840740253203 14917.528425184533
340.4704395082099 14899.190114361796
341.5421957409617 14852.414256513783
342.6136761890357 14852.958664803697
343.6848809406365 14752.450757804434
344.75581008392874 14752.461184488795
345.82646370703696 14667.6242097965
346.8968418980512 14660.437944084004
347.96694474501055 14648.096777239658
349.0367723359268 14631.821310657713
350.106324758759 14538.848005091477
351.1756021014353 14468.032932156104
352.2446044518383 14517.762909196541
353.31333189781435 14463.499390314504
354.38178452716966 14442.805916862455
355.449962427665 14484.350603461726
356.51786568702846 14446.818146511718
357.58549439294256 14498.614618449355
358.6528486330535 14473.57766710305
359.71992849496564 14373.59831818543
360.7867340662433 14456.381836957928
361.8532654344144 14413.75542331278
362.9195226869597 14485.816408836303
363.9855059113288 14340.869356251478
365.05121519492604 14378.939483866601
366.11665062511565 14460.658553939362
367.1818122892273 14442.017272699555
368.2467002745434 14336.099428198515
369.31131466831175 14481.144936865114
370.375655557742 14422.998292123133
371.4397230299983 14382.72823835733
372.5035171722102 14355.04917360676
373.5670380714637 14455.844350583138
374.6302858148101 14475.610513579371
375.6932604892554 14458.922477406526
376.7559621817709 14533.171460565154
377.81839097928605 14372.322844134827
378.8805469686886 14421.387643974176
379.94243023683157 14367.10402212109
381.0040408705263 14309.718198112165
382.0653789565458 14374.623067200635
383.1264445816196 14370.505809449274
384.1872378324406 14345.220628007733
385.2477587956637 14294.579510954345
386.3080075579037 14250.597456027263
387.3679842057336 14288.908263203255
388.4276888256918 14206.015579310179
389.48712150426945 14142.873895001767
390.54628232792857 14236.923526959252
391.6051713830857 14173.09855248153
392.66378875611736 14238.837813045015
393.7221345333637 14182.8822187635
394.7802088011249 14108.998320345772
395.838011645661 14129.128593886246
396.89554315319765 14095.145546520327
397.9528034099112 14037.38782677262
399.00979250194723 14018.866688464823
400.06651051541485 14000.15137988926
401.1229575363741 13947.113389768972
402.17913365085224 14001.79101370995
403.23503894483656 14015.791119413541
404.2906735042761 13853.396407590408
405.3460374150818 13790.141833600966
406.401130763119 13919.624905170878
407.455953634224 13878.643883058117
408.5105061141876 13870.522573797964
409.56478828876243 13668.831311783735
410.6188002436629 13736.06863291286
411.6725420645689 13703.244220136508
412.72601383711117 13707.243805907292
413.77921564689314 13718.896717313512
414.8321475794728 13667.422095706692
415.88480972036814 13566.95681181975
416.93720215506437 13674.887028516463
417.9893249690049 13510.657528444606
419.04117824759123 13555.420510065476
420.09276207619223 13561.131983537916
421.144076540133 13495.312285842007
422.1951217247042 13466.205380073245
423.24589771515275 13447.441664338752
424.2964045966928 13425.26001559695
425.34664245449494 13402.87699220688
426.3966113736933 13354.660815010433
427.4463114393875 13344.004213171651
428.49574273662984 13271.603403499928
429.5449053504417 13285.11118817265
430.5937993658026 13344.900262224666
431.6424248676558 13213.04693830316
432.6907819409007 13274.707997047037
433.73887067040596 13215.062329056314
434.7866911409965 13205.622620141065
435.8342434374608 13248.086376615678
436.88152764455117 13240.22642143918
437.9285438469724 13144.735666726741
438.9752921294057 13113.060413116418
440.02177257648145 13156.23368164837
441.06798527279716 13106.348194515032
442.1139303029122 13083.51098462713
443.1596077513459 13152.230214875492
444.2050177025794 13185.405824552745
445.25016024105753 13235.38867691328
446.2950354511886 13170.451608363514
447.33964341733736 13126.34734414941
448.383984223834 13210.856145849242
449.4280579549686 13197.871229828035
450.471864694995 13250.417981485429
451.5154045281306 13146.59248556823
452.5586775385509 13079.451317457346
453.60168381039693 13184.965194290464
454.64442342776783 13320.46713144198
455.6868964747264 13259.814602394332
456.7291030353008 13218.543141139433
457.77104319347563 13260.64898588405
458.8127170332027 13244.677049719281
459.854124638392 13368.116041536792
460.895266092919 13411.595741957854
461.93614148061897 13477.649530006613
462.97675088529104 13520.001586187573
464.01709439069236 13555.445925522354
465.0571720805492 13588.186860818683
466.0969840385442 13643.38424928792
467.1365303483253 13790.997727300884
468.17581109350067 13730.265878182905
469.2148263576437 13733.007528703482
470.2535762242878 13798.95239093645
471.29206077693016 13818.369714581495
472.33028009902773 13807.796224605268
473.3682342740012 13922.952795429632
474.40592338523857 13958.944120505617
475.4433475160804 13906.069416277469
476.4805067498364 13993.354012307424
477.51740116978 13974.455719431247
478.5540308591426 14176.195404698836
479.59039590112116 14211.616829499582
480.6264963788726 14279.206022198883
481.6623323755193 14440.911137845473
482.6979039741436 14439.250421554441
483.7332112577915 14503.84129653839
484.76825430947247 14657.312352796527
485.80303321215797 14741.035798473877
486.837548048783 14773.396741585431
487.8717989022425 14955.116382244354
488.90578585539697 14968.83992149014
489.9395089910686 14962.363710034173
490.97296839203955 14953.14034819149
492.00616414106116 14913.02463543109
493.0390963208429 14898.13118147203
494.0717650140559 14823.702499649164
495.10417030333883 14658.869473064202
496.1363122712901 14622.169237416369
497.16819100046814 14582.221003726358
498.1998065734024 14333.607261141307
499.2311590725767 14281.37215174321
500.26224858044407 14122.43217834018
501.2930751794156 14073.337257954141
502.3236389518679 13956.769354329508
503.35393998014115 13859.12559457049
504.38397834653733 13848.166496069676
505.4137541333221 13670.156880651546
506.4432674227228 13622.523250357704
507.4725182969323 13532.509734478832
508.5015068381035 13454.378461345777
509.53023312835467 13445.709070639696
510.55869724976765 13363.439164758378
511.58689928438434 13174.21715002702
512.6148393142121 13196.478827127716
513.6425174212218 13196.173091910934
514.6699336873462 13193.071822667622
515.6970881944835 13158.013220789499
516.7239810244901 13092.872714932411
517.7506122591931 13066.808118796898
518.7769819803761 13183.163342318701
519.8030902697901 13075.483424886746
520.8289372091476 13125.441508585727
521.8545228801249 13263.247789588077
522.8798473643619 13137.21460937418
523.9049107434621 13139.033603766418
524.9297130989908 13157.98322382235
525.9542545124805 13069.268311647898
526.9785350654201 13135.375292034552
528.0025548392696 13021.964896534068
529.0263139154504 13010.375250625942
530.0498123753423 13028.651649724616
531.073050300296 12904.650620437216
532.0960277716204 12986.52034413879
533.1187448705896 12895.280842337574
534.1412016784416 12858.781990480593
535.1633982763833 12836.278865163153
536.1853347455726 12824.359797184457
537.2070111671401 12685.697802029397
538.2284276221817 12722.921260147046
539.2495841917516 12595.824977775144
540.2704809568677 12577.341641833907
541.2911179985167 12591.288954928092
542.3114953976419 12482.236761273616
543.3316132351592 12530.290584104381
544.3514715919409 12447.19127995198
545.3710705488247 12373.11116466537
546.3904101866156 12426.641097848744
547.4094905860784 12505.028499561762
548.4283118279418 12407.45429485085
549.4468739929034 12380.351458119012
550.4651771616191 12258.26696724026
551.4832214147063 12237.249853598842
552.501006832761 12350.67682436171
553.5185334963226 12285.073440461649
554.5358014859103 12338.306129047955
555.5528108820035 12303.097826795778
556.5695617650363 12232.462611554007
557.5860542154242 12357.420818416223
558.6022883135283 12250.513523461956
559.6182641396881 12204.311045581568
560.6339817741991 12265.697579137353
561.6494412973225 12352.01911498491
562.6646427892883 12316.146482532138
563.6795863302796 12238.718599565578
564.694272000459 12241.516612183048
565.7086998799423 12295.180921506202
566.7228700488104 12287.364025521962
567.7367825871115 12288.371223761987
568.7504375748576 12326.227529236925
569.7638350920224 12301.798481795715
570.7769752185486 12262.353047241577
571.7898580343353 12255.187932718727
572.802483619258 12273.396473780482
573.8148520531431 12343.291072782482
574.8269634157932 12391.77816888881
575.8388177869692 12376.591846176763
576.8504152463938 12390.675415669553
577.8617558737587 12446.084391993722
578.8728397487175 12603.563614520992
579.883666950891 12587.27030271881
580.8942375598654 12685.544137857065
581.9045516551851 12792.799865600831
582.9146093163617 12885.361845433274
583.924410622878 12869.223683892018
584.9339556541727 12934.455266036864
585.9432444896538 12971.38868201499
586.9522772086875 13050.140384666056
587.9610538906127 12959.873268012434
588.9695746147318 12889.055961462453
589.9778394603054 12961.665489661458
590.985848506567 12886.804399487937
591.9936018327098 12888.668626510142
593.0010995178891 12735.758836331339
594.0083416412344 12842.435717562645
595.0153282818283 12689.65607306239
596.0220595187293 12760.265263371391
597.0285354309508 12654.842208420832
598.0347560974806 12653.98948437318
599.0407215972609 12565.99436880094
600.0464320092051 12579.77541813716
601.0518874121954 12572.719405458154
602.0570878850685 12546.406726173993
603.062033506636 12581.726425442752
604.0667243556636 12627.503301092642
605.0711605108936 12570.679950454953
606.0753420510264 12670.527374944339
607.0792690547278 12677.819794900895
608.082941600629 12789.651438989587
609.0863597673306 12670.851583891892
610.0895236333909 12756.203155785763
611.0924332773357 12841.076229044234
612.0950887776617 12943.268695990279
613.0974902128219 12930.402410831595
614.0996376612384 13134.306971697622
615.1015312013005 13150.413096025042
616.1031709113595 13210.383972741349
617.1045568697336 13202.998384372291
618.1056891547069 13473.297614874526
619.1065678445229 13574.277324523491
620.1071930173985 13760.888883545242
621.1075647515099 13899.54009491681
622.1076831250048 14019.922645414063
623.1075482159849 14269.540700372401
624.1071601025305 14367.274522871507
625.1065188626781 14669.898208932264
626.105624574433 14800.187370658643
627.1044773157682 14865.13966548061
628.1030771646128 15133.854334785883
629.1014241988742 15215.253821090568
630.0995184964158 15305.036548769343
631.0973601350688 15437.591421208414
632.0949491926294 15507.829004891173
633.0922857468631 15420.760821763819
634.089369875499 15378.320995490267
635.0862016562278 15401.547157185661
636.0827811667077 15247.695514642124
637.0791084845641 15356.766023318962
638.0751836873878 15128.222115566732
639.0710068527369 15212.660438418057
640.0665780581294 14923.085102452747
641.0618973810506 14786.412808047957
642.0569648989604 14708.097909512053
643.0517806892676 14514.359976896443
644.0463448293649 14433.045901706177
645.040657396592 14265.384199388984
646.0347184682723 14245.848221070675
647.0285281216875 14058.607881246027
648.0220864340772 13943.079565575836
649.0153934826558 13842.030747046316
650.0084493446047 13710.584143538004
651.0012540970674 13636.301697141918
651.9938078171526 13566.642400142484
652.9861105819346 13486.579366763332
653.9781624684565 13390.43702023405
654.9699635537254 13312.401479380987
655.9615139147136 13323.265964478613
656.9528136283589 13216.470180250893
657.9438627715699 13260.85942054942
658.9346614212154 13130.478456699286
659.925209654135 13033.468793893006
660.9155075471263 13048.010411035368
661.9055551769616 13095.87578957049
662.895352620375 13017.480393431593
663.8848999540678 12993.351672518527
664.8741972547068 12876.802319981061
665.863244598926 12886.397036334132
666.8520420633213 12889.927252593332
667.8405897244611 12960.792342099312
668.8288876588758 12772.314780985558
669.8169359430613 12817.149128544734
670.8047346534822 12845.933568836732
671.7922838665672 12795.488428067281
672.7795836587156 12806.303410799463
673.766634106285 12901.740935318445
674.7534352856092 12861.947076737144
675.7399872729766 12842.704215655032
676.7262901446538 12791.21817573249
677.712343976862 12724.43870886812
678.6981488457986 12858.603518775231
679.6837048276229 12724.411435802967
680.6690119984596 12662.082747484765
681.6540704344043 12630.014500244428
682.6388802115107 12593.057833720643
683.6234414058108 12561.853338044448
684.6077540932874 12490.649220865276
685.591818349907 12469.79421705397
686.575634251587 12376.81222256204
687.5592018742263 12349.25187758793
688.5425212936734 12197.652541351195
689.5255925857564 12245.437506007922
690.5084158262707 12086.997167240512
691.4909910909646 12066.382167146043
692.4733184555644 11877.691443877766
693.4553979957618 12002.597279740603
694.4372297872123 11884.464347849436
695.4188139055404 11831.728738313655
696.4001504263324 11817.651809306191
697.3812394251509 11814.297282577176
698.3620809775111 11830.239206187029
699.3426751589104 11868.281925320025
700.3230220448004 11689.181766809363
701.3031217106054 11868.85650475847
702.2829742317172 11860.081509995298
703.2625796834873 11779.504556675869
704.2419381412474 11756.844460548988
705.22104968028 11841.961843879271
706.1999143758458 11842.825015427805
707.178532303169 11769.799219916298
708.1569035374378 11842.407687355724
709.1350281538107 11864.39559583928
710.1129062274158 11878.54738683643
711.0905378333373 12003.42240107246
712.0679230466376 11895.540179812835
713.0450619423427 12047.302630645007
714.0219545954424 12009.782511032095
714.9986010808989 12017.102037610879
715.9750014736292 12067.726773824987
716.9511558485392 12188.697285285278
717.9270642804786 12172.786089441886
718.9027268442787 12239.297978217546
719.8781436147328 12214.668091836762
720.8533146666014 12191.278220530518
721.828240074612 12133.10402403813
722.8029199134635 12145.137643332564
723.7773542578125 12064.800535405033
724.751543182294 12057.505323186895
725.7254867615029 12019.345146678435
726.6991850700015 11930.553604111697
727.6726381823228 11852.81650782948
728.6458461729599 11896.919021385733
729.6188091163858 11906.265909602433
730.5915270870246 11938.425629569914
731.5640001592856 11819.355334961849
732.536228407529 11989.344831099661
733.5082119060917 11983.600721147654
734.4799507292755 11942.979964071073
735.4514449513481 12024.592600053593
736.4226946465496 12112.956409563518
737.3936998890786 11992.840074619595
738.3644607531078 11905.603261593666
739.3349773127793 11897.461243480062
740.3052496421951 11881.579395336714
741.27527781543 11755.200703951607
742.2450619065221 11761.724708651607
743.2146019894826 11655.671397228196
744.183898138288 11525.502017259996
745.1529504268801 11567.218925916639
746.1217589291682 11440.258005405029
747.0903237190341 11289.11232367347
748.058644870318 11384.887544252559
749.0267224568397 11232.93086029483
749.994556552374 11214.045913587926
750.9621472306771 11108.224386378153
751.9294945654583 11181.619967319451
752.8965986304011 11225.867110594296
753.8634594991636 11170.069944921053
754.8300772453586 11237.728545290369
755.7964519425768 11212.856244059987
756.762583664371 11194.052153460336
757.7284724842611 11206.97289817853
758.6941184757416 11157.732955884088
759.6595217122667 11186.929582847886
760.6246822672638 11226.07517495616
761.5896002141235 11117.669026354517
762.5542756262093 11175.191378377394
763.5187085768503 11161.476591088533
764.4828991393406 11129.085887168081
765.4468473869474 11114.470888050799
766.4105533929032 11086.921523215813
767.3740172304078 11012.384358290954
768.3372389726283 10865.653742570892
769.3002186926988 10929.404731427781
770.2629564637282 10860.977804833658
771.2254523587872 10856.173573011314
772.1877064509154 10791.345232017356
773.1497188131179 10759.684173758402
774.1114895183728 10673.198437773857
775.0730186396268 10670.53585491508
776.0343062497905 10587.585461201375
776.9953524217381 10561.095655920897
777.9561572283274 10512.661785291824
778.9167207423689 10555.687708144085
779.8770430366476 10621.06491081042
780.8371241839159 10591.87635502579
781.7969642568951 10517.428249100178
782.7565633282757 10635.656076023057
783.7159214707099 10537.449130403707
784.6750387568281 10580.479300133828
785.6339152592227 10579.424717858408
786.5925510504512 10564.386052809274
787.5509462030477 10511.78025476484
788.5091007895098 10558.92554607413
789.4670148823006 10633.094160189086
790.4246885538596 10629.030528373452
791.3821218765861 10594.351112443193
792.3393149228505 10621.82236067256
793.2962677649975 10593.398355704036
794.2529804753303 10752.492128709846
795.20945312613 10784.321054126827
796.1656857896378 10744.209872879725
797.1216785380675 10802.32122295444
798.0774314435985 10869.761519500662
799.0329445783846 10987.976125633972
799.9882180145414 11030.16884031299
800.9432518241574 11070.786126457566
801.89804607929 11126.459684911391
802.852600851962 11136.349243174787
803.8069162141637 11159.549186340239
804.760992237856 11268.83787936665
805.714828994971 11192.439063171758
806.6684265574077 11317.30750428013
807.6217849970271 11211.134670038018
808.574904385674 11172.721323849111
809.527784795142 11130.575365684173
810.4804262972102 11137.433595377466
811.4328289636178 10977.340152442977
812.3849928660748 10897.107518196879
813.3369180762638 10902.661322873828
814.2886046658241 10747.151192462114
815.2400527063783 10650.826152558267
816.1912622695108 10596.79986295311
817.1422334267718 10605.243145388418
818.0929662496856 10556.220108545302
819.0434608097457 10418.0698257844
819.9937171784059 10277.933383888334
820.9437354271013 10253.173688201587
821.8935156272255 10235.36886552637
822.8430578501484 10161.371333348436
823.7923621672016 10041.873103478914
824.7414286496896 10067.344116081915
825.6902573688876 10145.988729748055
826.6388483960363 10044.574452455705
827.5872018023492 9989.685988714966
828.5353176590033 10061.008874700781
829.4831960371503 9945.13801976676
830.4308370079016 9982.758847728861
831.3782406423525 9972.20977147745
832.3254070115545 9887.997776664519
833.2723361865319 9808.381976637958
834.2190282382799 9943.274701078248
835.1654832377644 9969.8857204809
836.1117012559116 9997.876136413895
837.0576823636256 10034.324419710734
838.003426631778 9876.249663690693
838.9489341312074 9902.882669721257
839.8942049327197 9832.939593091312
840.8392391070975 9914.480108626216
841.7840367250865 9893.261405232119
842.7285978573982 9881.718490060372
843.672922574724 9891.969902732288
844.6170109477152 9885.818272781515
845.560863046996 9886.177685806488
846.5044789431595 9819.150512119704
847.4478587067697 9887.170806323116
848.3910024083561 9816.75494954255
849.333910118421 9969.140046800267
850.2765819074339 9853.2431942529
851.2190178458332 9862.380927463793
852.161218004032 9913.185225006153
853.1031824524016 9848.333431956622
854.0449112612987 9851.686654663315
854.9864045010327 9929.78499443343
855.9276622418947 9834.896238538131
856.8686845541379 9760.34077098369
857.8094715079915 9806.230118056612
858.7500231736467 9890.77240571764
859.690339621271 9840.965353083386
860.6304209209939 9878.992504864404
861.5702671429244 9791.858153348747
862.5098783571284 9872.548055373598
863.4492546336569 9854.825314748472
864.3883960425155 9840.684621772718
865.3273026536863 9844.975854620603
866.2659745371238 9954.627192791002
867.2044117627465 9939.184808513002
868.1426144004472 9886.258790803819
869.0805825200823 9893.319344395464
870.0183161914847 10034.385188001976
870.9558154844526 10036.20773680398
871.8930804687552 9981.721806526764
872.8301112141307 10056.42890946506
873.7669077902865 10156.102585336053
874.7034702669062 10153.758263513577
875.6397987136315 10222.035108635271
876.5758932000863 10165.977019841943
877.5117537958522 10242.931831474973
878.4473805704911 10326.171954891584
879.3827735935283 10209.801559468751
880.3179329344603 10254.49464527478
881.2528586627541 10316.797890683772
882.1875508478479 10359.65472695645
883.1220095591489 10266.953739397353
884.0562348660296 10259.943854594621
884.9902268378391 10381.755815776922
885.9239855438955 10317.295792650084
886.8575110534839 10156.03360392566
887.7908034358588 10131.285775643037
888.7238627602474 10239.362997061104
889.6566890958475 10115.287223505293
890.5892825118208 10011.724968699617
891.5216430773125 9987.453625198794
892.4537708614189 9880.9214241556
893.3856659332196 9781.66051118511
894.3173283617652 9803.691966317616
895.2487582160684 9860.949414685181
896.179955565116 9731.158819603423
897.110920477864 9661.389263682573
898.0416530232451 9737.889705001306
898.9721532701478 9615.85288946248
899.9024212874428 9675.274524963947
900.8324571439662 9487.247256077355
901.7622609085302 9563.99532997414
902.6918326499072 9409.356994400003
903.6211724368477 9541.457039899176
904.5502803380696 9479.594208804152
905.4791564222614 9483.672667554883
906.4078007580792 9444.978890818029
907.3362134141571 9412.176842105264
908.2643944590909 9378.449528138186
909.1923439614493 9421.08842448484
910.1200619897754 9345.092806845405
911.0475486125779 9438.691124741852
911.9748038983344 9371.217617721475
912.9018279155007 9387.506031896284
913.8286207324982 9279.879035936623
914.7551824177117 9266.851003903794
915.6815130395116 9303.697403737744
916.6076126662283 9297.533861919403
917.533481366163 9338.9929361281
918.4591192075914 9308.254609726466
919.3845262587565 9396.069951954069
920.3097025878706 9329.202314174732
921.2346482631237 9336.520745257545
922.1593633526682 9353.426981199951
923.0838479246304 9390.504263218134
924.0081020471061 9296.984097293975
924.9321257881656 9295.50598195204
925.8559192158464 9341.320811166745
926.7794823981512 9296.587419611295
927.7028154030686 9301.24741913377
928.6259182985414 9262.349124462473
929.5487911524906 9378.437294510184
930.4714340328119 9319.728044166093
931.3938470073608 9267.103698191375
932.3160301439748 9315.092215321365
933.2379835104548 9407.512258097438
934.1597071745709 9273.321874457752
935.0812012040769 9390.076174027712
936.002465666681 9242.077506956572
936.9235006300696 9333.745822600238
937.8443061619055 9281.296919827602
938.7648823298077 9220.922972738274
939.6852292013809 9226.04452140644
940.6053468441951 9289.830523690503
941.5252353257874 9301.594444394626
942.4448947136698 9303.517062312714
943.364325075323 9314.588406024559
944.2835264782043 9358.62797791202
945.2024989897309 9301.27853349152
946.1212426773054 9272.719383201596
947.0397576082851 9165.086832114133
947.9580438500125 9343.192318415433
948.8761014697939 9307.273910567124
949.7939305349064 9303.633651566068
950.7115311125999 9294.397615130656
951.6289032700952 9359.361306691126
952.5460470745875 9424.680010052683
953.4629625932339 9398.298101451292
954.3796498931715 9373.956894572493
955.2961090415029 9399.35288039546
956.2123401053068 9343.960086112766
957.1283431516276 9317.779355811332
958.0441182474842 9304.307630923064
958.9596654598663 9343.731043485195
959.8749848557309 9318.811043222644
960.7900765020167 9340.958595237516
961.7049404656209 9345.720047639787
962.6195768134185 9396.579132976132
963.5339856122537 9303.060440697434
964.4481669289453 9393.593727783049
965.3621208302793 9226.38214150386
966.2758473830145 9417.880038195577
967.1893466538822 9439.525394086522
968.1026187095813 9389.666509825835
969.0156636167867 9410.12890899787
969.9284814421426 9273.376120877196
970.8410722522622 9359.565889402415
971.753436113735 9357.154987000686
972.6655730931161 9335.936359340283
973.5774832569368 9368.457292246489
974.4891666716958 9302.263876712375
975.4006234038698 9445.098880007066
976.3118535198955 9296.51414101444
977.2228570861935 9435.177779106083
978.1336341691494 9318.031392967463
979.0441848351202 9331.521403601731
979.9545091504333 9311.018349689073
980.864607181391 9477.321881386315
981.7744789942699 9389.200498592018
982.6841246553086 9548.177717731103
983.5935442307236 9405.896288792912
984.5027377867027 9458.512038918885
985.4117053894024 9458.033657479707
986.3204471049557 9433.627783586486
987.2289629994648 9479.497208329529
988.1372531390007 9625.562486814928
989.0453175896091 9510.098860210359
989.9531564173067 9588.9451485293
990.860769688079 9514.865989775606
991.7681574678918 9586.615359438529
992.6753198226706 9605.513817253744
993.582256818323 9603.668630560442
994.4889685207218 9749.4477220303
995.3954549957143 9801.986216895015
996.301716309119 9687.532724110646
997.2077525267232 9780.98813599911
998.1135637142943 9786.030152136373
999.0191499375615 9775.65132477623
999.924511262232 9660.489860492175
1000.8296477539861 9761.318636922671
1001.7345594784656 9684.470326744135
1002.6392465012996 9682.644548798162
1003.5437088880753 9677.860241021594
1004.4479467043584 9672.678952621642
1005.3519600156869 9505.198420828528
1006.2557488875718 9493.62057450934
1007.1593133854858 9490.635678170967
1008.0626535748888 9547.172108871273
1008.9657695212009 9530.817041925391
1009.8686612898182 9523.029590330096
1010.7713289461135 9566.212750385508
1011.6737725554212 9542.25366771854
1012.5759921830577 9480.233208367354
1013.4779878943027 9549.141581728822
1014.379759754418 9449.647783719416
1015.2813078286254 9388.98291789628
1016.18263218213 9341.70548079607
1017.0837328801026 9471.433554803041
1017.9846099876886 9501.959115821242
1018.8852635700023 9440.942011488089
1019.7856936921362 9284.63714513317
1020.6859004191447 9419.652624080676
1021.5858838160675 9338.00803220471
1022.4856439479063 9345.662336711897
1023.3851808796389 9381.222979984881
1024.2844946762143 9354.498433041523
1025.183585402554 9257.03914671747
1026.082453123554 9265.508731145252
1026.9810979040776 9289.384784505626
1027.8795198089647 9265.183888162373
1028.777718903024 9285.490378710054
1029.6756952510368 9214.065083004694
1030.5734489177648 9178.589614454277
1031.4709799679313 9318.994101803091
1032.3682884662358 9186.487527754492
1033.2653744773506 9247.712622192732
1034.1622380659192 9278.763597153351
1035.058879296559 9329.19167749504
1035.9552982338591 9381.114549863945
1036.8514949423825 9450.02174229081
1037.7474694866614 9455.193820033459
1038.6432219312028 9711.932946692683
1039.5387523404825 9684.033511821246
1040.4340607789582 9809.686230580664
1041.3291473110476 9845.828642856142
1042.2240120011465 10076.300085948442
1043.1186549136273 10120.999643008256
1044.0130761128294 10256.737986501332
1044.9072756630649 10390.296885857426
1045.8012536286205 10539.462256744926
1046.6950100737577 10457.367345246214
1047.588545062701 10734.332168103801
1048.481858659663 10803.686113505699
1049.3749509288118 10879.35589373101
1050.2678219343034 10777.547002221692
1051.1604717402515 10850.091123252516
1052.0529004107575 10759.634928791615
1052.9451080098825 10907.862559039113
1053.8370946016694 10794.9661608459
1054.7288602501267 10828.489895809802
1055.6204050192446 10700.202334219246
1056.511728972977 10776.158582676984
1057.402832175254 10539.692091746114
1058.2937146899785 10510.166133666575
1059.1843765810263 10316.891347985598
1060.0748179122456 10436.34987347509
1060.9650387474576 10302.659482721514
1061.855039150456 10274.901821406074
1062.7448191850071 10060.249567910338
1063.6343789148505 10009.24321776925
1064.5237184037014 9927.36921368337
1065.412837715241 9918.974750675325
1066.3017369131267 9728.354712629138
1067.190416060992 9763.626641370773
1068.0788752224398 9555.364527007558
1068.9671144610438 9539.217123906532
1069.8551338403558 9474.835108938893
1070.7429334239023 9632.323857995078
1071.6305132751695 9495.447447109776
1072.517873457633 9404.006681691439
1073.4050140347335 9394.517887195101
1074.2919350698776 9368.834351296344
1075.1786366264623 9280.217372886016
1076.0651187678395 9345.338542208843
1076.95138155735 9189.52557020856
1077.8374250582929 9250.844293650689
1078.7232493339507 9136.91054418904
1079.608854447577 9165.292123460986
1080.4942404623907 9184.282472661589
1081.3794074415982 9197.056285392977
1082.2643554483657 9086.852868424656
1083.149084545841 9196.657691302698
1084.033594797138 9020.332464022953
1084.9178862653516 9186.470038991243
1085.8019590135427 9124.231204927473
1086.6858131047484 9175.812306247875
1087.5694486019802 9172.058580510417
1088.4528655682225 9163.417829267304
1089.3360640664287 9137.295554778928
1090.2190441595321 9102.337702105378
1091.1018059104317 9221.683653418404
1091.98434938201 9199.885346611938
1092.866674637111 9201.30061390747
1093.748781738559 9264.266075959025
1094.6306707491512 9151.000788617814
1095.5123417316554 9181.945012252352
1096.3937947488157 9085.93934125764
1097.2750298633455 9128.716126619176
1098.156047137938 9161.567769691905
1099.0368466352556 9225.228250611981
1099.9174284179317 9079.500351162362
1100.7977925485757 9176.705735595377
1101.6779390897755 9160.308976338834
1102.5578681040806 9206.765888253052
1103.4375796540226 9154.491305507743
1104.3170738021054 9088.002013501122
1105.1963506108077 9113.41251504495
1106.0754101425773 9153.941596153341
1106.9542524598382 9133.27165022959
1107.8328776249855 9099.274033431368
1108.7112857003904 9139.336277087856
1109.5894767483987 9103.655384597721
1110.4674508313292 9157.94312028644
1111.3452080114657 9214.098273185355
1112.2227483510815 9129.267557536377
1113.1000719124077 9346.888517388466
1113.9771787576592 9307.384405762816
1114.854068949022 9375.157006745858
1115.7307425486542 9409.703171464078
1116.6071996186893 9521.043191250912
1117.483440221229 9635.55224405557
1118.3594644183577 9804.39082663149
1119.235272272128 9734.903635923934
1120.1108638445658 9901.473869400805
1120.9862391976712 9995.522765976582
1121.8613983934229 10129.432153773409
1122.7363414937627 10161.417099051201
1123.6110685606182 10242.050190921656
1124.485579655884 10313.970233459993
1125.359874841426 10351.599391419375
1126.2339541790916 10460.698602448942
1127.1078177306936 10559.220431936412
1127.9814655580267 10535.47386596645
1128.854897722851 10676.013989631068
1129.7281142869106 10570.860131716203
1130.6011153119125 10587.744682962853
1131.473900859548 10585.272156017298
1132.3464709914697 10508.859036126454
1133.2188257693178 10443.291949878809
1134.0909652546961 10511.030823705889
1134.96288950919 10355.458981932334
1135.8345985943506 10476.923384002026
1136.7060925717087 10184.045121554374
1137.57737150277 10219.96554802022
1138.4484354490069 10009.740009296189
1139.3192844718778 9956.499535425268
1140.1899186327992 9864.821678026303
1141.060337993178 10023.206006806484
1141.930542614382 9734.68632183014
1142.8005325577597 9759.64862711559
1143.670307884635 9505.410097220825
1144.5398686563003 9663.582995211735
1145.409214934025 9455.819653878807
1146.2783467790541 9479.58757027138
1147.1472642526023 9227.272475614245
1148.0159674158622 9287.05470162266
1148.8844563300026 9235.79625118498
1149.7527310561618 9207.979596004827
1150.6207916554504 9157.939093894627
1151.4886381889592 9083.063262168824
1152.3562707177498 9099.844260939692
1153.2236893028585 9120.326294777995
1154.090894005296 9007.95179144535
1154.9578848860474 9032.647537712528
1155.8246620060709 9051.599935232529
1156.6912254262988 9054.321780508802
1157.5575752076438 9002.612626153687
1158.42371141098 9037.797355043112
1159.2896340971656 8946.826429135805
1160.1553433270346 9027.8239540834
1161.0208391613887 8987.883538712975
1161.8861216610057 9037.180596090058
1162.75119088664 9004.722261044655
1163.6160468990201 9067.205871457942
1164.4806897588442 8933.538419604429
1165.3451195267917 9052.987313639642
1166.2093362635114 9120.5971695668
1167.0733400296285 9055.387351762993
1167.9371308857444 8940.937583844352
1168.8007088924278 9047.71364720202
1169.6640741102328 8942.173584693775
1170.5272265996773 8966.005505506346
1171.390166421259 8730.115954554218
1172.252893635452 9032.65068377242
1173.1154083026995 9018.143010801296
1173.977710483421 9061.811139077614
1174.8398002380145 9017.046992464495
1175.7016776268483 9098.692083862894
1176.563342710264 9031.59609852469
1177.4247955485826 9171.467863668562
1178.2860362020947 9077.30074169079
1179.147064731069 9145.209728580692
1180.0078811957483 9228.512705495927
1180.8684856563486 9080.846202498928
1181.7288781730604 9154.738494766982
1182.589058806052 9406.446949255116
1183.4490276154593 9353.9113100585
1184.3087846614017 9260.732646452507
1185.1683300039676 9271.953728574012
1186.027663703222 9519.950032790734
1186.8867858192025 9470.4434894737
1187.7456964119228 9559.06618255123
1188.6043955413716 9592.52206332269
1189.4628832675116 9566.56058087888
1190.3211596502842 9531.596215846292
1191.179224749596 9697.788103591003
1192.0370786253388 9637.29700388591
1192.8947213373758 9686.182477442182
1193.7521529455407 9830.352273932362
1194.6093735096438 9669.739995457236
1195.466383089477 9849.229468535279
1196.3231817447977 9873.691850211113
1197.1797695353398 9898.11780079222
1198.0361465208189 10008.044468468766
1198.8923127609214 9912.096277716255
1199.7482683153048 9849.88147091711
1200.6040132436028 9937.762774055876
1201.459547605431 10048.329470861263
1202.3148714603722 9931.977363941707
1203.1699848679855 9977.81591473791
1204.0248878878065 9825.858628464974
1204.8795805793507 9889.390013502885
1205.7340630020935 9934.024826949999
1206.5883352155033 9968.860764209403
1207.4423972790064 9824.261209220454
1208.2962492520237 9865.84921951511
1209.1498911939307 9872.229271931456
1210.0033231640937 9929.740082049682
1210.8565452218427 9703.21693423307
1211.7095574264913 9746.348285297081
1212.5623598373222 9633.642962607086
1213.4149525135963 9637.83905013576
1214.2673355145507 9510.617238449626
1215.1195088993936 9458.669412020436
1215.9714727273113 9510.482701097644
1216.8232270574663 9589.576675973429
1217.6747719489904 9501.871451833891
1218.5261074609934 9451.201215935045
1219.3772336525653 9411.0835316208
1220.2281505827668 9448.237932377635
1221.0788583106296 9408.144479220633
1221.9293568951707 9337.090933975554
1222.7796463953746 9231.340437878116
1223.629726870202 9333.907088581804
1224.4795983785934 9336.385545711742
1225.3292609794553 9371.622736793735
1226.1787147316809 9231.475990039351
1227.0279596941327 9225.592183808369
1227.8769959256424 9203.902490333814
1228.7258234850306 9199.28101633865
1229.5744424310833 9143.165580319794
1230.422852822563 9112.975626322183
1231.2710547182105 9139.210421891403
1232.119048176739 9129.591688519158
1232.9668332568417 9009.03244872118
1233.8144100171812 9171.111121422931
1234.6617785163999 9147.794826890062
1235.508938813111 9048.917784157939
1236.3558909659114 9065.241133361647
1237.2026350333617 9156.021635081399
1238.049171074008 9080.39842488388
1238.8954991463652 9006.66102201588
1239.741619308932 8898.253134689732
1240.587531620169 8995.553628554531
1241.4332361385277 9090.733116861347
1242.2787329224248 8892.209410934047
1243.1240220302534 8898.904582326675
1243.9691035203869 8958.829308843564
1244.813977451171 8952.838089915735
1245.6586438809263 9046.145437882149
1246.5031028679496 8755.64124079662
1247.3473544705157 9035.919542325824
1248.1913987468706 8861.28355475581
1249.0352357552383 8848.891203894293
1249.8788655538228 8923.178802080345
1250.7222882007918 8869.636689335724
1251.565503754302 8796.757753015414
1252.4085122724755 8918.620682853827
1253.2513138134182 8900.86850072275
1254.0939084352049 8908.6925003376
1254.9362961958905 8883.471418977791
1255.7784771535007 8964.895113922359
1256.6204513660432 8825.526340080934
1257.4622188915 8971.526961975687
1258.3037797878242 8931.600300848186
1259.1451341129468 8901.346732626607
1259.9862819247755 8813.452308414047
1260.8272232811978 8797.122482388686
1261.6679582400666 8745.984364153524
1262.5084868592203 8793.859261528594
1263.34880919647 8720.426679778266
1264.1889253095997 8915.374707266968
1265.0288352563712 8738.181548942168
1265.8685390945266 8852.272012508032
1266.7080368817751 8810.769291417373
1267.5473286758115 8799.397642087028
1268.386414534294 8915.180042871578
1269.2252945148703 8756.08706350258
1270.0639686751547 8781.337103041511
1270.9024370727402 8858.618399191626
1271.7406997651997 8813.690821396416
1272.5787568100714 8929.20126514649
1273.4166082648808 8706.729021638683
1274.2542541871244 8835.794906459912
1275.091694634275 8826.550459618255
1275.9289296637817 8821.591590898766
1276.7659593330663 8734.870424981713
1277.6027836995308 8860.594740649114
1278.4394028205552 8840.924568207025
1279.2758167534867 8827.16687998368
1280.112025555658 8856.802769330849
1280.9480292843746 8883.452889809854
1281.7838279969128 8781.833430174021
1282.6194217505326 8772.872130165586
1283.4548106024686 8732.263343798511
1284.289994609926 8801.221759998978
1285.1249738300921 8889.91241244735
1285.959748320127 8747.596005395095
1286.7943181371702 8817.643712225858
1287.6286833383328 8851.282699604673
1288.4628439807038 8836.100044999635
1289.2968001213521 8746.895319555406
1290.1305518173194 8766.788691574395
1290.9640991256183 8917.656441616013
1291.7974421032523 8845.108217491757
1292.630580807183 8743.762388000721
1293.463515294361 8858.720619811531
1294.29624562171 8852.11846695268
1295.12877184613 8833.652635880095
1295.961094024493 8911.390968474672
1296.79321221365 8857.821768914439
1297.6251264704333 9013.844327480812
1298.4568368516466 9075.094956867533
1299.2883434140658 9104.293641748915
1300.1196462144526 9000.665929230385
1300.9507453095375 9069.162683451585
1301.7816407560313 9124.440434034412
1302.6123326106172 9157.493283426076
1303.4428209299622 8958.16065160996
1304.2731057707024 9204.39690848379
1305.1031871894502 9077.476242794015
1305.933065242798 9141.419994338925
1306.7627399873181 9113.393435063805
1307.5922114795467 9339.22440623034
1308.4214797760123 9242.391570755077
1309.2505449332057 9167.686464769053
1310.0794070076026 9212.96794891538
1310.9080660556538 9280.14724877982
1311.736522133786 9172.38789080008
1312.5647752983987 9250.69132260227
1313.3928256058734 9290.195673055592
1314.2206731125661 9304.983092739956
1315.048317874809 9227.049842265422
1315.8757599489109 9229.184656046982
1316.7029993911547 9291.877138216125
1317.5300362578055 9399.663119343017
1318.356870605101 9132.874107553393
1319.183502489257 9280.90056334569
1320.0099319664623 9279.570754003576
1320.836159092889 9335.726912283222
1321.66218392468 9281.763580404946
1322.4880065179532 9285.834684522652
1323.3136269288134 9196.747312300835
1324.1390452133292 9328.257275259975
1324.9642614275563 9294.821020053841
1325.7892756275214 9318.33919378765
1326.6140878692295 9322.411760464105
1327.4386982086617 9352.753120321597
1328.2631067017755 9254.144264812181
1329.0873134045069 9299.01300245334
1329.911318372764 9164.486805332746
1330.735121662441 9134.696419320826
1331.558723329399 9225.795507913415
1332.3821234294774 9185.495957484121
1333.2053220185007 9124.4276475174
1334.0283191522612 9210.404968675191
1334.851114886529 9123.541237892034
1335.6737092770582 8951.437038760383
1336.4961023795695 8931.933994054429
1337.3182942497697 8902.382713840747
1338.1402849433325 8981.10483730787
1338.962074515921 8881.50563682024
1339.7836630231632 8711.873258532236
1340.6050505206676 8919.67809535096
1341.426237064028 8947.228026503743
1342.2472227088037 8786.82572132019
1343.0680075105338 8691.315350190414
1343.888591524741 8773.091059161814
1344.7089748069138 8750.380349339115
1345.5291574125276 8596.003601320335
1346.3491393970307 8486.999910472388
1347.168920815846 8663.226168471472
1347.9885017243778 8526.996366763504
1348.8078821780036 8589.0067889089
1349.6270622320844 8521.468305785147
1350.4460419419447 8595.303491833958
1351.2648213629054 8529.565164328207
1352.0834005502438 8476.222443757786
1352.90177955923 8459.398741527682
1353.7199584451064 8632.174160319197
1354.5379372630887 8503.454940122114
1355.355716068374 8496.08731958942
1356.1732949161305 8439.811531297139
1356.9906738615155 8394.720356968914
1357.8078529596478 8436.854258781623
1358.6248322656375 8461.508858417601
1359.441611834567 8368.281153639255
1360.2581917214866 8666.686746963602
1361.0745719814367 8282.730339390471
1361.890752669433 8460.549185790984
1362.7067338404577 8333.305052528402
1363.5225155494845 8353.910454844969
1364.3380978514506 8433.457904653895
1365.1534808012839 8319.382306322139
1365.9686644538815 8331.873538777963
1366.783648864117 8390.778077322644
1367.5984340868417 8336.64216964694
1368.413020176893 8365.441041154314
1369.2274071890715 8134.387046365757
1370.0415951781652 8201.748938667923
1370.8555841989346 8077.472241268088
1371.6693743061223 8308.549387872861
1372.48296555444 8276.702981388518
1373.2963579985844 8488.002859960976
1374.1095516932255 8138.405374653894
1374.9225466930166 8287.397954644248
1375.7353430525782 8086.708869567208
1376.5479408265164 8232.258828402288
1377.36034006941 8184.736074270093
1378.1725408358216 8304.474189440554
1378.9845431802805 8145.287628080105
1379.796347157304 8276.413239708923
1380.6079528213813 8278.677520699894
1381.4193602269788 8248.789173922652
1382.230569428546 8147.0246893283565
1383.0415804805016 8370.1097200103
1383.852393437246 8321.377129512724
1384.6630083531563 8236.626649986549
1385.4734252825892 8187.165028008994
1386.2836442798798 8300.428482323437
1387.0936653993322 8149.608437715001
1387.9034886952395 8107.1674341569305
1388.713114221864 8198.548700468486
1389.5225420334482 8250.557264217463
1390.331772184214 8125.699667460028
1391.1408047283585 8081.476900473096
1391.9496397200564 8055.4109411673735
1392.758277213461 8282.292281420507
1393.5667172627054 8084.905374356012
1394.3749599218918 7942.829731368161
1395.1830052451114 7849.11959690543
1395.9908532864265 8016.272240943437
1396.7985040998774 7908.270062956164
1397.6059577394808 7890.507721295902
1398.4132142592352 8025.359648719563
1399.2202737131156 7853.064259208748
1400.027136155073 7885.653860808267
1400.8338016390353 7847.829910811012
1401.6402702189134 7801.45387956955
1402.446541948586 7772.658959100631
1403.2526168819204 7636.09281975757
1404.058495072757 7757.046831824594
1404.8641765749107 7724.29553707054
1405.6696614421799 7799.010243347859
1406.4749497283356 7730.551469272209
1407.280041487129 7582.716957660108
1408.084936772295 7524.99196568366
1408.8896356375335 7640.201689852707
1409.6941381365323 7668.517542136973
1410.498444322955 7474.592877383999
1411.3025542504402 7543.487614806155
1412.106467972606 7690.037332810175
1412.9101855430508 7540.545837590554
1413.7137070153458 7540.948733677539
1414.5170324430437 7439.5788058728895
1415.320161879672 7498.7193519562325
1416.1230953787435 7508.691052097228
1416.925832993742 7417.972476409294
1417.7283747781275 7327.871405462523
1418.5307207853439 7388.852642369018
1419.3328710688093 7325.933579208276
1420.134825681922 7357.152501565577
1420.9365846780584 7285.636344720658
1421.7381481105713 7297.587696143142
1422.539516032788 7328.896604859945
1423.3406884980232 7247.788274734396
1424.1416655595604 7266.919003166724
1424.942447270665 7262.783124150577
1425.7430336845828 7207.2789394948795
1426.5434248545298 7276.023194174367
1427.3436208337116 7267.061474559052
1428.143621675301 7443.715356027084
1428.9434274324558 7324.359374172654
1429.7430381583108 7200.2615369498835
1430.5424539059713 7258.37896405428
1431.3416747285337 7574.063191696994
1432.1407006790632 7324.037946462624
1432.9395318106053 7218.1937235906535
1433.7381681761835 7274.964343335707
1434.5366098288014 7394.867388134214
1435.3348568214424 7260.012618035672
1436.1329092070573 7328.210174390389
1436.9307670385879 7203.386547816177
1437.7284303689503 7453.8729248522195
1438.5258992510335 7382.826888555904
1439.3231737377118 7335.719573364317
1440.1202538818306 7270.6050465691715
1440.9171397362225 7343.887749939246
1441.7138313536925 7281.4685713597155
1442.5103287870243 7219.630910182501
1443.3066320889775 7108.576867059254
1444.1027413122956 7262.860822589003
1444.8986565096966 7162.133296782093
1445.694377733882 7241.258390233884
1446.4899050375207 7131.593107284937
1447.2852384732687 7037.389124624303
1448.0803780937622 7070.132895375497
1448.8753239516063 7095.705598754621
1449.6700760993954 6996.204502760127
1450.464634589689 7032.186947889265
1451.2589994750397 7026.004869874692
1452.0531708079689 7031.220783201778
1452.8471486409799 6963.649843412895
1453.6409330265524 7024.653007385602
1454.4345240171442 6946.420380365553
1455.2279216651987 6987.157920958084
1456.0211260231263 7026.832587411744
1456.8141371433194 6859.933886659793
1457.6069550781594 6872.505092088631
1458.3995798799897 6838.79834659612
1459.1920116011424 6886.922518826359
1459.98425029393 6858.451882122589
1460.7762960106338 6811.838703218328
1461.5681488035225 6834.837603647016
1462.3598087248392 6809.395920472934
1463.1512758268036 6631.774691060047
1463.942550161617 6858.296220711649
1464.7336317814625 6732.819084245309
1465.524520738496 6700.552795886327
1466.3152170848552 6765.780600044469
1467.1057208726506 6674.450251705423
1467.8960321539817 6630.253962543876
1468.6861509809169 6513.210368407488
1469.4760774055085 6558.474617352613
1470.265811479785 6702.424249371048
1471.055353255755 6563.73422177108
1471.844702785409 6545.516765536405
1472.6338601207044 6636.96241726825
1473.4228253135934 6557.925524126852
1474.2115984159936 6605.413210936807
1475.0001794798063 6428.403386176317
1475.7885685569145 6511.446069443219
1476.576765699172 6533.151728701803
1477.3647709584238 6591.516808989642
1478.1525843864802 6440.72678503862
1478.9402060351367 6577.167475691438
1479.7276359561693 6473.313476318686
1480.514874201328 6412.06293700057
1481.3019208223468 6471.490880969432
1482.0887758709323 6429.774984772968
1482.8754393987747 6441.732046747918
1483.6619114575406 6308.8774277287675
1484.4481920988783 6423.962311450828
1485.2342813744108 6556.533648157014
1486.0201793357446 6388.519292866227
1486.8058860344572 6514.505718396939
1487.591401522117 6440.349960404552
1488.3767258502594 6410.74592990615
1489.1618590704056 6395.428058918891
1489.9468012340494 6468.688114451508
1490.7315523926754 6352.280307747769
1491.5161125977356 6554.607716680136
1492.3004819006637 6264.006381106269
1493.084660352877 6423.360851847123
1493.8686480057622 6343.727990735018
1494.6524449106964 6563.387085157403
1495.4360511190262 6540.315107347373
1496.219466682087 6409.717579363978
1497.0026916511779 6415.798439731444
1497.7857260775945 6313.658197349011
1498.5685700125996 6377.103943371398
1499.3512235074395 6397.5465803781135
1500.133686613337 6345.58546231267
1500.9159593814966 6343.427651922069
1501.698041863101 6349.847815647441
1502.4799341093094 6244.35246224444
1503.2616361712662 6267.542230360961
1504.043148100087 6442.633573122673
1504.8244699468742 6355.519311327314
1505.6056017626997 6325.853801402232
1506.3865435986281 6118.090270471294
1507.1672955056893 6361.451612907866
1507.9478575348967 6296.250707869471
1508.7282297372512 6376.609202333502
1509.5084121637192 6269.319966175333
1510.2884048652577 6328.647123569006
1511.0682078927948 6361.404852315129
1511.8478212972423 6319.505929782543
1512.6272451294917 6281.06421120942
1513.4064794404076 6420.503143346052
1514.1855242808433 6281.19429135698
1514.9643797016215 6438.730975111409
1515.743045753552 6370.656132057944
1516.5215224874191 6406.704734383089
1517.2998099539836 6296.375750976529
1518.077908203999 6399.562457978509
1518.8558172881785 6430.223180317278
1519.633537257234 6460.768310140603
1520.4110681618404 6275.0763103913105
1521.1884100526604 6535.825032121563
1521.9655629803365 6526.33027445492
1522.7425269954856 6493.578154250173
1523.5193021487103 6504.772595345809
1524.2958884905856 6380.466977802516
1525.0722860716687 6519.479720630345
1525.848494942502 6425.4340284829805
1526.624515153595 6393.149586341928
1527.4003467554485 6508.218099037361
1528.175989798534 6507.196504350048
1528.9514443333064 6576.257040371046
1529.726710410203 6603.462432945957
1530.5017880796331 6626.335764965185
1531.276677391992 6580.059982350869
1532.0513783976457 6598.373416828588
1532.825891146953 6615.303696743353
1533.6002156902414 6645.087492428112
1534.3743520778207 6564.8416632442095
1535.1483003599806 6535.854045220345
1535.9220605869923 6528.037169711804
1536.6956328091019 6676.507776874629
1537.4690170765407 6616.172091616167
1538.242213439511 6710.525246152148
1539.015221948208 6619.178375285608
1539.78804265279 6763.217858297304
1540.560675603405 6585.527937902004
1541.3331208501804 6648.66922849612
1542.1053784432224 6778.150830796289
1542.8774484326168 6812.765670776009
1543.649330868422 6699.420046709427
1544.4210258006842 6751.76037976039
1545.1925332794308 6811.204922955124
1545.9638533546604 6826.7711019959725
1546.7349860763552 6727.210084805127
1547.5059314944829 6887.650542971356
1548.27668965898 6847.115555528597
1549.0472606197673 6975.955550474037
1549.817644426752 6780.6800181354365
1550.5878411298072 6831.153261278516
1551.3578507787988 6843.209270405243
1552.1276734235635 6864.023422076078
1552.8973091139233 6821.870707198497
1553.6667578996767 6905.736530195827
1554.436019830604 7001.721952306999
1555.20509495646 6880.470868503241
1555.9739833269869 6850.985907187128
1556.7426849919011 6868.469168966614
1557.511200000903 7032.328127086859
1558.2795284036674 6926.725917839978
1559.0476702498509 6911.353322382226
1559.8156255890954 7037.379585475431
1560.5833944710157 7040.677272094054
1561.3509769452048 7020.313548303934
1562.1183730612447 6908.362440738418
1562.8855828686865 6963.524706647021
1563.6526064170703 7053.719262070328
1564.4194437559127 7058.468217841308
1565.1860949347047 6850.30167977846
1565.9525600029283 7080.594086365543
1566.7188390100328 6953.708909472405
1567.4849320054564 6945.94546874143
1568.250839038612 6873.01885678243
1569.0165601588997 6916.240655520695
1569.7820954156887 7004.663377254268
1570.5474448583373 6900.7781769816165
1571.31260853618 6941.764583082499
1572.0775864985299 6768.535278603068
1572.8423787946813 6931.821166129933
1573.6069854739108 6939.78607787538
1574.371406585471 6930.889148071541
1575.1356421785986 6964.604345468235
1575.899692302506 6916.454150297859
1576.6635570063845 6798.441054871184
1577.4272363394157 6865.324113491262
1578.190730350747 6821.896348637088
1578.9540390895163 6720.0040427811455
1579.7171626048384 6575.996800546006
1580.480100945806 6735.118748951672
1581.2428541614918 6768.054338097463
1582.0054223009538 6571.147187665083
1582.767805413223 6751.74004881421
1583.5300035473156 6765.238316384188
1584.292016752228 6753.988278887082
1585.0538450769309 6727.970791561051
1585.8154885703807 6682.152452984796
1586.5769472815136 6598.944613584749
1587.3382212592405 6708.451833948675
1588.099310552463 6722.488405415543
1588.8602152100484 6317.970541745546
1589.6209352808564 6699.6771629439045
1590.3814708137234 6681.760065221157
1591.14182185746 6164.723576725149
1591.9019884608679 6791.19023725825
1592.6619706727215 6522.323393390648
1593.4217685417734 6606.181326830968
1594.1813821167616 6616.23194012984
1594.9408114464022 6399.972340798628
1595.7000565793933 6604.53109476439
1596.459117564409 6625.091463484004
1597.2179944501113 6491.765712679169
1597.9766872851324 6489.410014869588
1598.735196118092 6398.653263601549
1599.4935209975883 6757.116895715441
1600.2516619721973 6625.4020977572
1601.0096190904787 6422.124663427574
1601.7673924009723 6623.637515072633
1602.524981952196 6451.346032481615
1603.2823877926476 6325.102728244851
1604.0396099708087 6495.17888548251
1604.7966485351371 6359.413891569348
1605.5535035340745 6465.095700205263
1606.3101750160404 6492.61927125004
1607.0666630294363 6447.262301453281
1607.822967622642 6270.7932052837705
1608.5790888440224 6391.929450337431
1609.3350267419137 6524.946422605083
1610.0907813646445 6416.940377027384
1610.8463527605145 6469.698366654267
1611.601740977805 6390.997268585865
1612.356946064785 6525.624790559402
1613.1119680696902 6251.088459666404
1613.8668070407512 6350.951918905363
1614.6214630261748 6343.7533758776
1615.375936074137 6322.495878363366
1616.1302262328118 6368.8792484546175
1616.8843335503425 6363.450434151158
1617.638258074854 6298.740941556147
1618.391999854457 6362.048803192793
1619.1455589372363 6432.1706697912905
1619.8989353712623 6372.363393734778
1620.65212920458 6213.02629050045
1621.4051404852235 6400.554401617557
1622.1579692611976 6242.130559784253
1622.9106155804966 6272.159330126597
1623.663079491087 6303.5845955937175
1624.4153610409248 6199.194681299312
1625.1674602779385 6151.031111026144
1625.9193772500403 6174.133356244015
1626.6711120051277 6199.411777742829
1627.4226645910676 6213.798436519129
1628.174035055721 5947.6173764569885
1628.9252234469168 6110.324924827243
1629.676229812474 6020.563496507709
1630.4270542001905 6264.561828600367
1631.1776966578382 6035.791965594615
1631.9281572331747 5983.094831295778
1632.678435973945 5978.319459668046
1633.4285329278573 6002.389069374031
1634.1784481426203 5943.585055077776
1634.9281816659113 6016.877131242135
1635.677733545388 5931.3469970144815
1636.4271038286934 6001.272108573897
1637.176292563452 5792.7935255342
1637.9252997972635 5983.413922713605
1638.674125577716 6029.014531904109
1639.4227699523672 5970.358725018886
1640.171232968767 5713.81769423175
1640.9195146744423 5885.693575608022
1641.6676151168977 5839.423607407049
1642.4155343436178 5760.43111975608
1643.1632724020765 5955.317391057389
1643.9108293397167 5850.33759321195
1644.658205203974 5716.987607118462
1645.4054000422566 5967.547814413637
1646.1524139019566 5768.174153325584
1646.8992468304423 5787.711469203239
1647.6458988750728 5767.824101261771
1648.3923700831765 5866.809813983428
1649.1386605020743 5830.121898394431
1649.8847701790564 5795.933394774431
1650.6306991614038 5726.971992290964
1651.3764474963682 5792.0247745563765
1652.1220152311944 5626.977739476427
1652.867402413096 5785.085824560998
1653.6126090892776 5539.162432907893
1654.3576353069184 5818.732045176034
1655.1024811131829 5722.154726442432
1655.8471465552066 5750.863003044878
1656.5916316801213 5740.900804351889
1657.3359365350298 5614.103429623618
1658.0800611670165 5633.36792864217
1658.824005623148 5509.044630503883
1659.5677699504722 5455.391264688795
1660.3113541960192 5407.374593369602
1661.054758406799 5487.712753299305
1661.7979826297997 5403.6552969274
1662.5410269119966 5297.360938442947
1663.283891300338 5284.957624974613
1664.0265758417645 5417.590263362748
1664.7690805831826 5213.269086318689
1665.5114055714948 5296.689941347904
1666.2535508535748 5393.360345690873
1666.9955164762814 5227.6651355344175
1667.7373024864555 5207.32294540082
1668.478908930916 5246.135076963066
1669.220335856462 4933.089410759501
1669.9615833098778 5136.006629434551
1670.7026513379296 4962.8983826232015
1671.44353998736 5079.204908753953
1672.1842493048916 5016.438798179875
1672.9247793372379 4970.3127558060205
1673.6651301310812 4854.676275411066
1674.4053017330934 4899.167463823111
1675.1452941899242 4941.941650860617
1675.885107548207 4703.869190296743
1676.6247418545518 4736.663493357037
1677.3641971555535 4852.50840928973
1678.1034734977893 4680.582083313957
1678.8425709278108 4790.178389019393
1679.5814894921605 4750.8527382543525
1680.320229237359 4543.605620544355
1681.0587902098978 4687.7181684096595
1681.7971724562685 4769.223284186099
1682.5353760229264 4765.701367130651
1683.2734009563173 4530.723111977006
1684.0112473028657 4575.364497074242
1684.7489151089794 4566.013747590385
1685.4864044210462 4483.816409816254
1686.2237152854377 4487.011749463663
1686.960847748498 4490.448337675032
1687.6978018565642 4407.251864965114
1688.434577655944 4363.258729428757
1689.1711751929379 4357.784494990144
1689.9075945138156 4422.791688208288
1690.6438356648396 4296.068185214616
1691.3798986922448 4243.913215923816
1692.1157836422499 4286.831018200955
1692.851490561059 4279.263699907167
1693.587019494853 4204.27877977455
1694.3223704897991 4195.989015309124
1695.0575435920364 4137.77987149929
1695.792538847696 4182.988166519298
1696.527356302886 4149.219157865698
1697.2619960036936 4029.8487299008384
1697.9964579961907 4156.129928552608
1698.730742326432 3752.1765740177134
1699.4648490404488 3959.1432532161393
1700.1987781842563 3997.9528017342527
1700.9325298038548 4078.66762360767
1701.6661039452174 4012.89486306912
1702.3995006543082 4063.1079471878606
1703.1327199770658 3981.3830471103493
1703.865761959416 3985.708820504544
1704.598626647261 4074.0745643894506
1705.3313140864866 3905.2173648853013
1706.0638243229587 3857.018269466965
1706.7961574025303 3959.2009566355605
1707.528313371029 3843.8470164231912
1708.260292274268 3799.0406569543957
1708.9920941580403 3853.6935481032488
1709.7237190681226 3817.916346158615
1710.4551670502697 3917.995344173374
1711.18643815022 3710.707802435272
1711.9175324136959 3801.692150866733
1712.6484498863938 3763.1351905607007
1713.379190614005 3644.6201884260167
1714.109754642188 3970.84695268992
1714.8401420165883 3677.5604429325294
1715.570352782839 3564.718067235317
1716.3003869865497 3785.9681047124695
1717.0302446733076 3730.5923859776362
1717.7599258886876 3543.8506328649846
1718.4894306782444 3702.942712389961
1719.2187590875183 3520.923475898026
1719.9479111620203 3666.6918706335573
1720.6768869472544 3678.781318255613
1721.4056864887025 3673.6980163794883
1722.1343098318284 3626.6660548831787
1722.8627570220742 3667.3260033206607
1723.591028104871 3546.6135976516343
1724.3191231256242 3528.519225773746
1725.0470421297232 3547.789373839427
1725.7747851625427 3555.545869697255
1726.5023522694337 3642.0789598732044
1727.2297434957363 3586.073615842795
1727.9569588867635 3247.1957420742856
1728.6839984878152 3643.950457169472
1729.4108623441734 3365.2594872126965
1730.1375505011038 3587.8660669532933
1730.8640630038426 3584.5918803249924
1731.5903998976264 3401.839003507467
1732.316561227657 3597.6858338585466
1733.0425470391274 3539.653943974377
1733.7683573772065 3578.8006537822635
1734.4939922870508 3580.081857524855
1735.2194518137949 3542.468338128076
1735.9447360025606 3526.6568928254237
1736.669844898439 3423.649194421465
1737.3947785465189 3497.189115789505
1738.1195369918605 3301.7330113225
1738.8441202795093 3380.0650273336696
1739.5685284544943 3520.9727566359797
1740.292761561821 3481.22559782225
1741.0168196464838 3577.583563449784
1741.7407027534518 3447.9198108360897
1742.464410927687 3478.3768723367452
1743.187944214118 3475.9776462067116
1743.9113026576688 3287.9529474704154
1744.634486303241 3285.8182946331463
1745.3574951957125 3463.0895163604328
1746.0803293799509 3452.3180391292394
1746.8029889008048 3296.873083684014
1747.5254738031017 3469.775106988383
1748.2477841316504 3288.7528029568143
1748.969919931249 3367.7879081241276
1749.6918812466665 3188.617361802596
1750.4136681226646 3438.05207353711
1751.1352806039777 3493.494483655578
1751.856718735331 3366.8231582912404
1752.5779825614281 3410.1094216044557
1753.2990721269507 3317.528862150556
1754.0199874765676 3350.1120586112747
1754.7407286549314 3141.1058470369026
1755.4612957066693 3298.9474389893426
1756.1816886763954 3356.0722713590367
1756.9019076087097 3333.192021812441
1757.6219525481865 3314.5753179436338
1758.3418235393856 3392.6010087849086
1759.061520626854 3430.4699793115296
1759.7810438551096 3226.036610732449
1760.5003932686614 3376.4257678403096
1761.2195689119999 3305.021827389575
1761.938570829594 3255.6385973761103
1762.657399065898 3276.2664101177115
1763.376053665348 3267.292245354709
1764.0945346723602 3291.582461732042
1764.812842131334 3297.277844083663
1765.5309760866512 3163.058091016507
1766.2489365826787 3219.5027087862754
1766.9667236637597 3310.1267897279604
1767.684337374223 3123.922085202955
1768.401777758383 3059.9779966566302
1769.1190448605284 3122.6195471296064
1769.836138724937 3165.691995115031
1770.5530593958665 3235.1032475938923
1771.2698069175603 3176.847794816099
1771.9863813342326 3265.447926098954
1772.702782690094 3198.128441096215
1773.4190110293293 3262.6762845074823
1774.1350663961111 3346.9966088824717
1774.8509488345844 3303.5058741058538
1775.5666583888924 3288.4393456752855
1776.2821951031437 3342.6990630614455
1776.9975590214362 3303.4066861032115
1777.7127501878585 3331.313593413185
1778.4277686464684 3195.2273109288067
1779.1426144413108 3193.75338090909
1779.8572876164162 3169.21898793777
1780.571788215797 3197.0219969294058
1781.2861162834415 3206.5463453039574
1782.0002718633277 3333.613259126545
1782.7142549994132 3167.832094578827
1783.4280657356376 3143.4605703349425
1784.141704115922 3059.963269029983
1784.855170184177 3097.205836015437
1785.5684639842839 3190.859698025538
1786.2815855601148 3065.407289705461
1786.9945349555237 3146.885534427406
1787.707312214343 3118.4751230749803
1788.4199173803918 3151.0089523279003
1789.132350497468 3085.728180443174
1789.8446116093583 3076.622794027397
1790.556700759822 3282.297440548254
1791.2686179926077 2865.265841223351
1791.9803633514493 3160.9496642262684
1792.6919368800554 3056.0237237320625
1793.4033386221236 3235.7327724493352
1794.1145686213295 3151.765039126581
1794.8256269213307 3245.9214128633866
1795.536513565774 3128.9306334307757
1796.247228598284 2964.950493397643
1796.9577720624693 2963.105737896386
1797.6681440019165 3050.767389955684
1798.3783444602013 3122.887991253626
1799.0883734808776 3116.816314423488
1799.7982311074884 3178.9446969976466
1800.5079173835475 3049.6772494881716
1801.2174323525633 3222.877780601364
1801.9267760580187 3190.517601294506
1802.635948543386 3005.074479480011
1803.3449498521113 3083.0781824707046
1804.0537800276325 2988.17797013056
1804.7624391133668 3096.827734291649
1805.47092715271 2933.9045787380505
1806.1792441890484 3114.055961227276
1806.8873902657433 3092.112038731797
1807.5953654261448 3004.63205547254
1808.3031697135812 2959.439764010105
1809.0108031713662 3070.4690844253237
1809.71826584279 2986.081703591751
1810.425557771141 3030.5042556861517
1811.1326789996747 3140.625752158175
1811.839629571632 3024.8384475920393
1812.5464095302468 2979.6460111450497
1813.2530189187182 3106.1338913089894
1813.959457780249 2897.9722264550974
1814.6657261580076 3036.0998314043727
1815.371824095153 3048.231346989193
1816.0777516348262 3050.4106958986094
1816.78350882015 2884.633765281125
1817.4890956942272 2992.3274969646
1818.1945123001533 2995.6136588709337
1818.8997586809928 3052.5529112099402
1819.6048348798067 3010.6976124855064
1820.3097409396287 2824.549281373088
1821.0144769034796 3085.9916591375304
1821.7190428143622 2952.2972157985128
1822.423438715261 3163.3344195874997
1823.1276646491478 2930.9625643964946
1823.8317206589727 3061.174403487875
1824.5356067876692 3010.6979375635074
1825.2393230781581 2945.836377765515
1825.942869573335 2950.6720423632646
1826.646246316086 3053.0377150669015
1827.3494533492758 2939.3503883479816
1828.052490715756 2961.9267280131
1828.7553584583547 2985.427319763313
1829.458056619891 3097.396632703334
1830.1605852431585 2878.687615929731
1830.8629443709433 2953.878297257558
1831.5651340460063 2976.19215770074
1832.2671543110919 3021.451643455624
1832.9690052089318 2958.1394107895812
1833.6706867822395 2943.0821416415683
1834.3721990737104 3137.731653586828
1835.0735421260233 3014.4333949156544
1835.774715981841 3047.1121120441626
1836.4757206838058 2993.281972645639
1837.1765562745459 2792.476254053414
1837.8772227966747 2819.6218670994576
1838.5777202927839 2953.3010860918007
1839.2780488054523 2917.5338406225683
1839.9782083772352 2854.6317241977413
1840.6781990506806 2885.018277261285
1841.378020868313 2993.4975486842654
1842.0776738726418 3043.1204019280503
1842.777158106157 2986.499994492403
1843.4764736113375 2790.0373548542602
1844.1756204306403 2938.9087544322783
1844.8745986065078 2868.4087513454206
1845.5734081813607 2907.5127127124024
1846.2720491976124 2814.845655500912
1846.970521697649 2840.8962326235714
1847.6688257238511 2925.187665706765
1848.3669613185684 2913.1762184984555
1849.0649285241452 2861.4438011067173
1849.7627273829057 2825.4795816941187
1850.460357937156 3016.562837815408
1851.1578202291857 2613.581429963934
1851.8551143012664 2887.391602035546
1852.5522401956569 3044.594615169134
1853.2491979545957 2937.2358365668942
1853.9459876203055 2790.782052284084
1854.6426092349902 2756.7033284632507
1855.3390628408451 2808.314173771669
1856.0353484800362 2867.163429274314
1856.7314661947203 2916.7863360709716
1857.4274160270397 2836.103536968591
1858.123198019115 2785.601480612416
1858.8188122130487 2984.2613056337113
1859.5142586509319 2918.184801457345
1860.209537374838 2890.988331570399
1860.9046484268183 2770.032125870096
1861.599591848917 2961.37372330068
1862.294367683151 2716.8547826271006
1862.988975971528 2878.797081566648
1863.6834167560355 2714.686666267805
1864.3776900786452 2946.452958513327
1865.0717959813119 2741.183868509663
1865.7657345059724 2939.3294835680995
1866.4595056945564 2969.442600808212
1867.1531095889586 2848.6404931101065
1867.846546231076 2890.2932728891515
1868.5398156627743 2902.3658178827154
1869.2329179259123 2844.4628052252006
1869.9258530623283 2940.6616695325188
1870.618621113843 2871.2296566845985
1871.3112221222636 2749.816572770122
1872.0036561293764 2691.360782144525
1872.695923176956 2882.376772283512
1873.3880233067594 2913.561902547396
1874.0799565605212 2698.327832386733
1874.7717229799673 2824.61843493799
1875.4633226068036 2848.887889168983
1876.1547554827175 2836.1917441415717
1876.8460216493859 2815.5419826366337
1877.5371211484617 2792.2065929107766
1878.2280540215852 3042.126654463892
1878.9188203103804 2655.928550370456
1879.6094200564548 2891.0032246583824
1880.299853301396 2713.2506545353826
1880.9901200867826 2780.076819972369
1881.6802204541673 2862.0670769160342
1882.3701544450942 2824.1746935245346
1883.059922101087 2876.88341188671
1883.7495234636517 2785.4649407806796
1884.4389585742792 2791.8222355262646
1885.1282274744517 2850.722381835497
1885.8173302056166 2977.4491013343268
1886.506266809225 2829.542541706777
1887.195037326701 2664.5058025567964
1887.8836417994517 2853.9924444782905
1888.5720802688702 2940.992436826499
1889.260352776333 2649.7006518242515
1889.9484593632042 2718.0055563320684
1890.63640007082 2785.580609039599
1891.3241749405151 2712.5014785644835
1892.0117840135954 2889.783114668975
1892.6992273313572 2779.895042125647
1893.3865049350788 2753.4240134013303
1894.0736168660223 2919.423143818736
1894.7605631654333 2763.1815968755573
1895.4473438745408 2721.0282234321644
1896.133959034556 2772.462003531263
1896.820408686679 2782.3199244090897
1897.506692872088 2826.406684403265
1898.192811631945 2843.388257289788
1898.8787650073991 2778.1597601838453
1899.5645530395832 2863.0943187895728
1900.2501757696118 2782.653619261004
1900.9356332385796 2703.2004339723467
1901.620925487574 2752.5644452453557
1902.3060525576602 2659.7733791526452
1902.9910144898859 2923.02864465891
1903.6758113252872 2636.9270810287717
1904.3604431048789 2825.437938930677
1905.0449098696663 2779.3470085969084
1905.7292116606295 2890.979757075775
1906.4133485187394 2714.2798188997035
1907.0973204849488 2385.3888690251783
1907.7811276001976 2766.816289860563
1908.4647699053967 2669.8271822708457
1909.1482474414588 2652.3122755516074
1909.8315602492694 2488.689639691208
1910.5147083696957 2610.343520760422
1911.1976918436012 2840.5630097545245
1911.880510711815 2735.1391528410068
1912.5631650151681 2702.1886714074744
1913.2456547944657 2786.153285028271
1913.927980090495 2777.978111217451
1914.6101409440362 2616.5991257907144
1915.2921373958416 2660.960869214297
1915.9739694866603 2827.4259035594123
1916.655637257214 2854.5244257155505
1917.3371407482136 2834.4768100281526
1918.0184800003572 2966.2883119407074
1918.6996550543154 2628.2457965763183
1919.3806659507554 2784.9531649880796
1920.0615127303208 2957.500055137653
1920.7421954336423 2812.4821279509033
1921.4227141013343 2870.6955185523248
1922.103068773993 2751.34577664286
1922.783259492202 2774.2281810382224
1923.4632862965227 2691.1270717614434
1924.1431492275078 2569.8718646339103
1924.8228483256917 2730.049065682023
1925.5023836315922 2701.256389018349
1926.1817551857057 2480.2554114810746
1926.8609630285227 2763.433370537959
1927.5400072005123 2650.791386494623
1928.218887742125 2563.3572212712797
1928.8976046938005 2529.3105016234686
1929.5761580959588 2745.7171331753475
1930.2545479890086 2622.969207357479
1930.9327744133352 2688.9670303546654
1931.6108374093164 2800.3491977439276
1932.2887370173066 2697.2222879113256
1932.9664732776473 2556.065881593742
1933.6440462306673 2782.711910322161
1934.3214559166754 2591.9815525046624
1934.9987023759659 2705.4287673108265
1935.675785648813 2663.7289615857458
1936.3527057754836 2608.663277373363
1937.029462796223 2773.7133448442073
1937.70605675126 2651.278200166407
1938.3824876808085 2831.1319099404523
1939.058755625072 2524.8268784234037
1939.7348606242267 2720.2989008778413
1940.4108027184448 2694.800504684948
1941.0865819478713 2670.1950309885956
1941.7621983526478 2587.160047160488
1942.4376519728921 2454.1044107303096
1943.1129428487038 2578.634489194091
1943.7880710201734 2609.312804334292
1944.4630365273733 2860.9975721821606
1945.1378394103576 2581.1693497805654
1945.8124797091714 2789.835860464122
1946.4869574638324 2444.6089346998097
1947.161272714353 2621.543635902298
1947.8354255007234 2611.4084096940637
1948.5094158629272 2640.835342949828
1949.1832438409183 2593.8701908198764
1949.8569094746435 2640.734184491713
1950.530412804037 2740.0071908792224
1951.2037538690092 2835.5693062408413
1951.8769327094578 2588.5566656202486
1952.5499493652678 2730.6866329591658
1953.222803876306 2576.3404430539786
1953.895496282421 2604.593714610058
1954.5680266234522 2321.104025986154
1955.2403949392155 2617.9540693833696
1955.9126012695142 2550.3974583017157
1956.5846456541403 2674.965535259583
1957.2565281328643 2439.4248558429667
1957.9282487454457 2559.309724401037
1958.5998075316202 2690.224959523679
1959.27120453112 2699.1283137142595
1959.9424397836501 2607.260492433076
1960.613513328908 2619.171954028629
1961.2844252065697 2808.624955375649
1961.9551754563017 2743.064596920189
1962.6257641177453 2557.4386068753765
1963.29619123054 2654.543650797429
1963.966456834296 2435.881446634843
1964.6365609686181 2418.6299479006057
1965.306503673086 2728.2304889814577
1965.976284987275 2549.3717285756857
1966.645904950734 2572.3512007748136
1967.315363603002 2557.784534401787
1967.9846609836077 2620.049534439289
1968.6537971320486 2569.7079170175944
1969.3227720878222 2528.105413756631
1969.9915858904042 2525.9386887716655
1970.660238579252 2666.100801019793
1971.3287301938108 2689.8921757409903
1971.997060773514 2369.811163990923
1972.665230357772 2583.030258114865
1973.3332389859843 2349.2302135631676
1974.0010866975335 2377.9145915060312
1974.6687735317864 2614.080439814772
1975.3362995280932 2648.1234018621603
1976.003664725793 2432.7076721803915
1976.6708691642052 2258.545461070499
1977.3379128826364 2618.295476947029
1978.004795920373 2651.7602552594744
1978.6715183166925 2748.916088035109
1979.3380801108524 2494.304239188436
1980.0044813420973 2566.6112785074865
1980.6707220496555 2417.5888814966274
1981.3368022727373 2530.2249399043067
1982.0027220505417 2625.2529141838313
1982.66848142225 2386.48350052817
1983.3340804270283 2497.9313793245474
1983.999519104027 2564.5847374255795
1984.6647974923835 2606.3184126973447
1985.329915631215 2642.081358708102
1985.99487355963 2623.539077912331
1986.6596713167146 2554.5271894988964
1987.3243089415428 2494.345574558721
1987.9887864731754 2605.3763401168203
1988.6531039506553 2467.3355800177596
1989.3172614130071 2710.8029177585713
1989.9812588992481 2612.0895907198146
1990.645096448372 2504.1426815870177
1991.3087740993633 2450.7224228809946
1991.9722918911848 2405.3452082382046
1992.635649862792 2544.540453430965
1993.2988480531185 2652.5720794037675
1993.9618865010852 2645.0313664904124
1994.6247652455968 2466.6584014972836
1995.287484325545 2429.615778546776
1995.9500437798033 2653.6609372650682
1996.6124436472292 2318.859566277612
1997.2746839666706 2448.395868728865
1997.936764776954 2536.3082039712485
1998.598686116895 2526.0381526538245
1999.2604480252903 2575.181778576602
1999.9220505409212 2403.5314984314487
2000.5834937025593 2274.545435141554
2001.2447775489582 2482.7037248480397
2001.9059021188514 2454.1386490226805
2002.5668674509616 2400.5625354053245
2003.2276735839987 2335.3462943786403
2003.8883205566508 2478.465021288145
2004.5488084075987 2491.5106897633477
2005.2091371755014 2531.4765136095575
2005.8693068990033 2545.740358771498
2006.5293176167397 2528.116750643415
2007.1891693673224 2323.08749883488
2007.848862189354 2208.14444231954
2008.5083961214223 2452.520280113367
2009.1677712020955 2415.825832183511
2009.8269874699254 2403.1498615081996
2010.4860449634598 2437.497139781564
2011.1449437212177 2269.578194662428
2011.8036837817108 2444.170397674665
2012.4622651834325 2510.5199389044733
2013.1206879648653 2597.0861744491294
2013.7789521644736 2493.9391647872044
2014.4370578207036 2473.5658690854993
2015.0950049719922 2383.591014536785
2015.7527936567585 2350.2389068100724
2016.4104239134067 2613.5184591525945
2017.067895780323 2592.9276954273596
2017.725209295886 2274.551204427574
2018.3823644984514 2514.230525454949
2019.0393614263648 2476.2330321394707
2019.6962001179545 2299.8321446245727
2020.3528806115355 2396.6618418960265
2021.0094029454067 2222.8806674434054
2021.6657671578487 2356.231879831846
2022.321973287133 2369.1868915613345
2022.9780213715148 2459.3991114731425
2023.6339114492293 2390.194329975425
2024.2896435585026 2490.6636647511673
2024.9452177375442 2365.6033943814973
2025.600634024544 2435.3329321986107
2026.2558924576842 2430.85033545401
2026.9109930751292 2488.0361315690034
2027.565935915025 2236.6246318296535
2028.2207210155066 2534.5821046760902
2028.8753484146964 2437.7628945928964
2029.529818150695 2301.3189339633664
2030.1841302615903 2322.4347866563126
2030.8382847854573 2378.373289591105
2031.4922817603601 2238.417174003296
2032.1461212243357 2507.4554374536738
2032.7998032154192 2228.554071203797
2033.4533277716218 2476.7549509641394
2034.1066949309443 2381.268111665565
2034.7599047313688 2474.5389489069753
2035.4129572108704 2693.267841089086
2036.0658524074006 2688.691047442433
2036.7185903589016 2433.942099092618
2037.3711711032956 2475.627853127654
2038.023594678496 2335.406407979024
2038.675861122394 2205.100928747194
2039.3279704728757 2440.950280560754
2039.9799227678031 2125.947024433979
2040.6317180450278 2339.330865697531
2041.2833563423865 2255.721011219194
2041.9348376977014 2576.605273573818
2042.5861621487784 2357.140561355721
2043.2373297334088 2451.2904682449357
2043.8883404893695 2516.428283150734
2044.5391944544208 2525.6132771594466
2045.1898916663158 2467.487523791153
2045.8404321627804 2541.0408887238113
2046.4908159815368 2251.744349973625
2047.1410431602853 2330.43961243307
2047.7911137367173 2216.2830826757804
2048.441027748504 2378.8811310168803
2049.090785233302 2276.7697366602943
2049.7403862287592 2239.624380856296
2050.389830772503 2319.2526372356942
2051.0391189021466 2237.2373905622653
2051.688250655294 2247.425435354998
2052.337226069527 2378.1227095885674
2052.986045182417 2345.9748948405804
2053.634708031521 2280.1808855757145
2054.283214654375 2353.0976025738114
2054.931565088511 2149.7953652328406
2055.579759371436 2210.3953229883823
2056.2277975406523 2328.6320866826013
2056.8756796336384 2526.018439328308
2057.5234056878617 2176.7099970714976
2058.1709757407752 2246.794652301394
2058.8183898298194 2293.9683620825335
2059.465647992416 2301.2592745075563
2060.1127502659747 2334.436709882334
2060.759696687888 2279.153539996197
2061.4064872955405 2482.2715215185844
2062.053122126292 2338.700208946194
2062.699601217497 2065.973563014114
2063.345924606485 2490.671296073255
2063.992092330587 2420.0411701291187
2064.638104427102 2392.5894131058976
2065.283960933324 2370.853293374831
2065.92966188653 2257.134586021234
2066.5752073239855 2300.1424665846953
2067.2205972829397 2270.450682927143
2067.86583180062 2302.1600294189916
2068.5109109142522 2370.3338067827326
2069.15583466104 2340.7009324517394
2069.8006030781708 2311.042864192637
2070.445216202821 2385.02808747604
2071.089674072153 2568.488261368235
2071.7339767233116 2210.4315380261223
2072.3781241934303 2184.071135788984
2073.0221165196253 2543.5477299775766
2073.6659537390024 2431.802301278479
2074.3096358886505 2331.456802433706
2074.953163005637 2079.0185604352646
2075.596535127028 2148.9598224387582
2076.2397522898664 2113.7018540619656
2076.882814531182 2266.2779985200145
2077.5257218879924 2392.6804957669897
2078.1684743973 2237.05790995143
2078.8110720960885 2031.852944898804
2079.453515021336 2395.970777144013
2080.095803209997 2298.517738259921
2080.7379366990135 2070.964229416047
2081.37991552532 2136.440740460143
2082.0217397258275 2106.4349512968065
2082.6634093374414 2148.9672925431523
2083.3049243970418 2339.1003776326515
2083.9462849415067 2340.555144873979
2084.587491007689 2361.8089639806158
2085.2285426324324 2516.0455512546578
2085.869439852564 2400.2932921616625
2086.510182704902 2328.3638902708763
2087.1507712262483 2256.3177499492695
2087.791205453381 2208.431771506086
2088.4314854230743 2330.8538894749195
2089.0716111720867 2232.9692023383695
2089.7115827371617 2209.2708440246024
2090.351400155023 2648.2258807048393
2090.991063462385 2265.553907927432
2091.6305726959527 2190.896890373634
2092.2699278924047 2404.1386976065264
2092.9091290884153 2114.9467419167204
2093.548176320641 2183.8360683950687
2094.187069625721 2321.8970519614654
2094.8258090402887 2066.864513542435
2095.464394600951 2275.428580331127
2096.102826344313 2338.955341754304
2096.741104306955 2501.313149334594
2097.379228525453 2099.551250891203
2098.017199036358 2201.9593798737924
2098.6550158762147 2372.930701581531
2099.2926790815527 2159.602376385243
2099.9301886888825 2335.5643852433805
2100.5675447347076 2283.6606195007184
2101.2047472555114 2152.324124564166
2101.841796287761 2020.7128076968952
2102.47869186792 2341.964754645303
2103.1154340324265 2313.620994632537
2103.752022817709 2149.7106153498
2104.388458260184 2234.187219797364
2105.024740396251 2168.75594410548
2105.660869262292 2189.085775071072
2106.296844894685 2216.6640454133567
2106.93266732978 2343.587741704009
2107.5683366039284 1982.5162041926628
2108.2038527534532 2309.703190750169
2108.8392158146726 2490.154960231272
2109.4744258238843 2170.1191690645414
2110.1094828173755 2089.8888524448525
2110.744386831422 2372.0422973384457
2111.3791379022787 2288.3212783178137
2112.01373606619 2363.8156879431885
2112.648181359389 2281.083384626418
2113.28247381809 2135.123221167426
2113.916613478492 2099.035190934721
2114.550600376786 2289.745000355884
2115.1844345491445 2494.1479805952868
2115.818116031729 2325.3612969853575
2116.451644860679 1986.7833711345133
2117.085021072133 2149.6829581337015
2117.718244702204 2074.8369210868186
2118.3513157869984 2182.95236365228
2118.984234362604 2082.12453566424
2119.617000465092 2201.2569488910203
2120.249614130529 2347.464126920185
2120.8820753949585 2226.786679826298
2121.5143842944162 2093.725179603175
2122.14654086492 2154.507860677008
2122.7785451424734 2165.241103825095
2123.4103971630702 2020.0368603115949
2124.042096962681 2149.340172997329
2124.6736445772767 2143.5233312318787
2125.305040042802 2064.945540555795
2125.936283395191 2023.2427066783675
2126.567374670365 2101.417784472272
2127.198313904233 2159.765601308073
2127.8291011326855 2231.645006875727
2128.4597363916037 2230.120354408852
2129.0902197168507 2123.9061620430334
2129.720551144279 2128.056252693626
2130.3507307097225 2239.133640826943
2130.980758449008 2139.65066235346
2131.6106343979427 2098.523524164932
2132.2403585923203 2311.697320549769
2132.8699310679276 2282.9046568337117
2133.499351860526 2290.2517741462857
2134.1286210058715 2248.8927285131003
2134.7577385397053 2133.815753921691
2135.3867044977487 2004.9583442676394
2136.0155189157176 2217.672493639507
2136.644181829308 2105.2520278059546
2137.2726932742025 1895.0574417868174
2137.901053286074 2126.078622332474
2138.5292619005777 2107.796296773922
2139.1573191533535 2176.228017005326
2139.7852250800315 2316.5019960134255
2140.4129797162295 2182.7135204838482
2141.0405830975433 1824.479921009902
2141.6680352595613 1898.7189996442253
2142.2953362378576 1973.1219249726705
2142.9224860679915 2024.315109897816
2143.549484785508 2068.0277046155074
2144.1763324259373 2263.712864358821
2144.803029024799 2054.257758122153
2145.429574617594 2182.915715654276
2146.0559692398165 2414.45348464626
2146.682212926942 1898.0286756324429
2147.308305714432 2157.313824144532
2147.9342476377333 2201.869782341896
2148.5600387322847 1995.732929412066
2149.185679033506 1957.467844289853
2149.8111685768017 2195.765548502118
2150.4365073975678 2080.117210005795
2151.061695531187 2298.876607695579
2151.686733013021 2126.0788966102223
2152.311619878423 2072.002051092282
2152.9363561627342 2255.9394293865307
2153.560941901278 2036.5296250098932
2154.1853771293663 2102.530973068754
2154.809661882293 2260.811322143052
2155.433796195348 2145.4336907245065
2156.0577801037944 2082.3374840670654
2156.681613642895 2066.540212942033
2157.3052968478896 2049.3184255810734
2157.928829754006 2249.5048269137005
2158.552212396462 2125.5475404314575
2159.1754448104566 1981.0288428026747
2159.7985270311783 1870.05553536511
2160.4214590938027 1944.8092781076732
2161.0442410334927 1932.1164175287515
2161.6668728853874 2035.7940503788323
2162.289354684628 2050.552248833154
2162.911686466332 2170.1651136852856
2163.533868265602 2221.321183214411
2164.1559001175337 2122.136333832942
2164.7777820572046 2283.425484255715
2165.399514119681 1968.460287945179
2166.021096340013 1682.8631631116154
2166.6425287532384 2212.094831751646
2167.263811394385 2137.204764248358
2167.8849442984574 1954.2438955273042
2168.505927500455 1854.5728954847116
2169.126761035366 2021.1909007644813
2169.7474449381552 2162.267338308877
2170.367979243778 1928.2443247042515
2170.9883639871823 2178.5851914627024
2171.608599203293 2125.161578753043
2172.2286849270276 2302.8488367887285
2172.8486211932886 2151.9510869421347
2173.4684080369625 1874.0812023520607
2174.0880454929265 2009.692488367297
2174.7075335960417 2017.4780462806907
2175.3268723811543 2127.123545207721
2175.9460618831 2214.5632923780418
2176.565102136701 1901.837047864587
2177.1839931767627 2265.466914457617
2177.802735038078 2034.491570722666
2178.421327755432 1957.3200955540203
2179.0397713635866 2042.529721608516
2179.658065897298 1731.4872099782922
2180.276211391305 1947.4229301810913
2180.8942078803357 2079.4912916091303
2181.5120553991 2026.9387027008902
2182.129753982299 1873.6519403221864
2182.7473036646206 2172.4196324695413
2183.3647044807367 2091.585372491128
2183.9819564653044 2044.2804523230534
2184.599059652968 2250.2012594511784
2185.216014078367 2155.8645988154103
2185.832819776113 1811.4097322618295
2186.4494767808137 1964.9362456841432
2187.065985127063 2149.7659850022396
2187.682344849436 1922.9039155402438
2188.298555982501 1913.767889223561
2188.9146185608097 2251.923042929778
2189.530532618901 2032.3419719008257
2190.1462981912937 2019.0318638052909
2190.761915312507 2042.4970707849873
2191.377384017036 1992.5590334222197
2191.9927043393654 2157.968103618893
2192.6078763139667 1779.435312806177
2193.2228999753006 2205.9285158670086
2193.837775357808 1729.717004217772
2194.452502495922 1865.5888710274187
2195.0670814240602 1844.2010470669848
2195.6815121766285 1928.3356455195012
2196.2957947880186 2185.576619394921
2196.9099292926057 1988.5610820196628
2197.523915724758 2209.292211871334
2198.137754118825 2106.997923418531
2198.7514445091456 2045.9160138758423
2199.3649869300443 1850.9283360534332
2199.9783814158327 2021.6813228546234
2200.5916280008096 2179.078836976024
2201.2047267192593 2004.5161640955346
2201.8176776054515 2176.2262183994253
2202.430480693649 1923.5147644801687
2203.0431360180955 1945.4607602224391
2203.6556436130195 1971.6873911493967
2204.268003512645 1992.4735191786367
2204.8802157511727 2293.9946817501705
2205.492280362796 2238.59286973397
2206.1041973816937 2016.480528594806
2206.715966842032 2033.4631116184792
2207.3275887779655 1799.061783982473
2207.93906322363 2026.3915171521826
2208.550390213153 2048.4922806380205
2209.1615697806465 1957.570010594604
2209.7726019602105 1723.7441678639448
2210.3834867859277 1681.1919414368488
2210.9942242918787 2156.559309479923
2211.6048145121167 1976.7334074365892
2212.2152574806914 2212.1514132938605
2212.825553231638 1993.953317908875
2213.435701798975 2167.509872625394
2214.045703216707 2035.7693048729714
2214.655557518832 1810.6450615940691
2215.2652647393297 1844.8691750705984
2215.874824912169 1710.5452650656043
2216.4842380713 1972.5349948954813
2217.09350425067 1965.0151555665313
2217.7026234842033 1741.0350236726458
2218.311595805819 2069.8178980206594
2218.9204212494133 1776.7433846604267
2219.52909984888 2011.7802207090585
2220.137631638092 2083.329915888831
2220.7460166509154 2154.8956654137514
2221.354254921198 2088.1335322083264
2221.9623464827764 2032.673525513231
2222.5702913694713 1850.683322758879
2223.178089615096 1843.7780946923522
2223.7857412534486 1787.9280186928895
2224.39324631831 1703.1517433910115
2225.000604843457 1827.2430113320866
2225.607816862641 2105.881636541215
2226.214882409611 1838.9450827638273
2226.8218015180973 2068.651027458034
2227.4285742218217 1850.1837847203592
2228.0352005544864 2016.2551111328662
2228.6416805497847 1881.2614364903125
2229.248014241399 1847.482268408142
2229.8542016629945 1867.2996675424642
2230.460242848223 2064.09748147908
2231.0661378307304 1881.0065210300618
2231.671886644139 1902.4731437255236
2232.277489322065 1854.2681594730834
2232.8829458981127 1686.8183346094495
2233.48825640587 2005.032168527036
2234.0934208789095 2150.4508753627665
2234.6984393507955 2143.1522536304487
2235.3033118550793 2188.3738743658146
2235.9080384252975 1927.406484276422
2236.5126190949723 1835.4590352947653
2237.1170538976166 1788.7127365160864
2237.721342866729 1857.434233705034
2238.32548603579 1926.2710172938926
2238.9294834382763 1755.0084254267986
2239.533335107646 1627.418475108157
2240.1370410773434 2149.4375614625683
2240.740601380803 1986.6986041371442
2241.3440160514474 1894.24431223486
2241.9472851226783 1853.1391144745005
2242.550408627896 1770.79381663466
2243.1533866004793 1869.4999472391871
2243.756219073799 2018.5265268300493
2244.3589060812064 1707.5103101370246
2244.961447656049 1887.7223857327558
2245.5638438316564 1812.5954799885646
2246.166094641343 1928.2304840669997
2246.7682001184166 1904.92959978215
2247.3701602961664 1822.316770219401
2247.971975207871 1956.1841817882112
2248.5736448867974 1806.583819297685
2249.175169366197 1858.8119782499616
2249.7765486793123 1887.220252798569
2250.3777828593684 2112.1191653363476
2250.9788719395783 2068.9742987754335
2251.579815953146 1937.6642611469647
2252.1806149332606 1707.603969980988
2252.781268913097 1710.8904587158006
2253.381777925817 1714.1638055206454
2253.9821420045737 1816.861922199386
2254.5823611825035 1979.5553076027845
2255.1824354927303 1862.5806476911293
2255.782364968365 2081.0333300820157
2256.38214964251 1730.2533237943503
2256.9817895482483 1896.5443191455215
2257.5812847186553 2055.646407635507
2258.180635186791 1756.8261998736186
2258.779840985704 1797.4088213364823
2259.37890214843 2000.65086109911
2259.97781870799 2070.2163100502357
2260.5765906973957 1939.396628998913
2261.175218149645 1799.2793955804568
2261.773701097718 1933.774922889547
2262.3720395745895 1504.5953480828566
2262.970233613216 1705.5324545434664
2263.568283246548 1723.5187669319603
2264.1661885075137 1806.6164943058034
2264.763949429038 1941.332029476415
2265.3615660440246 1841.0155960140432
2265.959038385374 1811.9329431024767
2266.5563664859637 1889.2204622989327
2267.153550378669 1775.1083977450235
2267.7505900963424 1765.9440357201825
2268.3474856718312 1703.571751809864
2268.9442371379664 1807.401848756012
2269.5408445275643 1685.6260787128776
2270.1373078734377 1751.5935614684495
2270.7336272083758 1886.54049488802
2271.32980256516 1969.6948646514575
2271.925833976562 1944.1401779819385
2272.5217214753357 1969.123039763088
2273.117465094223 1797.5177847357215
2273.7130648659586 1840.7931792608972
2274.308520823257 1944.161682253921
2274.903832998827 2132.4504624210385
2275.4990014253563 2085.9428878657936
2276.094026135528 2039.3070051905038
2276.6889071620117 1508.2162802276991
2277.2836445374614 1721.3541046500643
2277.878238294519 1628.3685979489603
2278.472688465812 1748.094477048469
2279.066995083962 1867.9425649216028
2279.6611581815705 1701.811386214637
2280.255177791232 1727.9204387914917
2280.8490539455233 2039.9472219853
2281.442786677013 1898.6656080956957
2282.0363760182554 2021.7900177878244
2282.6298220017943 1712.279486773016
2283.223124660155 2102.338411266286
2283.816284025859 1798.7252641145037
2284.4093001314086 1632.803248086207
2285.002173009292 1881.1506842109927
2285.5949026919952 1714.1876152523296
2286.1874892119777 1822.81010995544
2286.7799326016993 1777.7399562397538
2287.3722328936 1554.8620563181544
2287.964390120109 1764.0529202691534
2288.556404313642 1710.54766011953
2289.1482755066027 1858.5642666160668
2289.7400037313873 1680.2560313620604
2290.3315890203703 1814.1682856546763
2290.9230314059205 1735.832954906043
2291.5143309203904 1657.4245963754897
2292.1054875961236 1590.8301318248768
2292.6965014654506 1719.0293861287805
2293.287372560684 1941.124540256396
2293.878100914131 2055.8512138710144
2294.468686558086 1751.4281555297882
2295.059129524827 1680.1914346845338
2295.649429846617 2147.001385290466
2296.239587555716 1919.7492919948495
2296.8296026843636 1942.4441105340836
2297.419475264791 2107.227690885894
2298.0092053292137 2024.39599140938
2298.598792909839 1746.0918821354621
2299.1882380388597 1587.3170819605791
2299.777540748455 1833.597080896041
2300.3667010707904 2006.3357690895289
2300.9557190380256 1787.7183701622703
2301.544594682302 1868.9531602395232
2302.1333280357503 1633.8544597322762
2302.721919130485 1880.6104977467337
2303.3103679986198 1777.2410702797893
2303.898674672242 1781.7103497072312
2304.486839183437 1456.27342972332
2305.0748615642697 1487.4669686328757
2305.6627418468015 1518.8674844020757
2306.2504800630704 1552.8626961137084
2306.8380762451143 1672.6929083825096
2307.425530424949 1689.9979409496514
2308.012842634582 1707.3295286001999
2308.6000129060103 1960.7970873552815
2309.187041271214 1941.913528680489
2309.773927762164 1714.829788774356
2310.3606724108213 1882.9638448814542
2310.9472752491274 1650.4704447545137
2311.5337363090184 1562.72685909051
2312.120055622414 1585.9194884263425
2312.706233221221 1609.1736460658465
2313.2922691373424 1552.1803481640957
2313.8781634026564 1613.9653052118479
2314.463916049037 1675.8764420722935
2315.049527108342 1659.7979609625158
2315.6349966124235 2033.8507742516772
2316.2203245931123 2092.259004705869
2316.8055110822315 1678.7861961243714
2317.3905561115935 1707.1000767702863
2317.9754597129977 1611.4209666220734
2318.560221918229 1753.9703081730095
2319.1448427590603 1651.5477641152072
2319.729322267256 1434.435738929517
2320.313660474563 1838.3393474637692
2320.8978574127195 2105.272429361239
2321.481913113452 1858.1985482698717
2322.0658276084705 1575.4861171336934
2322.6496009294806 1761.5004800241393
2323.233233108165 1794.1242607340942
2323.8167241762058 1890.4756665931811
2324.4000741652617 1765.5488743701892
2324.983283106987 1814.880810379324
2325.5663510330232 1874.2566882584772
2326.1492779749933 1973.9610994783677
2326.7320639645204 1884.850476604934
2327.3147090332004 1564.2366869723794
2327.897213212629 1664.1257359938597
2328.4795765343843 1764.025621864641
2329.0617990300307 1822.579197381446
2329.643880731124 1943.8051542969347
2330.22582166921 1796.1921103930883
2330.807621875816 1760.2802134078897
2331.3892813824623 1638.0092258819725
2331.9708002206517 1658.1688445539671
2332.5521784218818 1827.9321731140003
2333.133416017634 1925.0170683177432
2333.7145130393765 1995.1253304199922
2334.295469518571 1845.6470510341355
2334.876285486658 1624.2325737129738
2335.456960975076 1629.4466938500518
2336.037496015242 1998.7984609723032
2336.6178906385667 1604.0600847740784
2337.198144876451 1943.4615030582631
2337.778258760278 1659.2817765840343
2338.3582323214214 1630.316099450196
2338.938065591243 2022.4802890465526
2339.517758601087 1986.8766607475568
2340.0973113822965 1668.5227014607904
2340.676723966193 1549.5235137289012
2341.255996384094 1601.183990807282
2341.835128667295 1694.4210184711087
2342.4141208470883 1782.6532068722142
2342.992972954751 1618.2037646074764
2343.5716850215467 1488.0780624110325
2344.1502570787306 1357.6481124720035
2344.7286891575386 1482.246861721675
2345.3069812892045 1777.3517436089478
2345.885133504944 1742.2274037868206
2346.4631458359618 1546.732118384328
2347.04101831345 1842.2152984657084
2347.6187509685915 1932.2795123681062
2348.196343832553 1652.5840488488295
2348.7737969364935 1554.0912163260593
2349.351110311558 1752.4396304532208
2349.9282839888765 1500.1619782006533
2350.5053179995757 1676.1228719622745
2351.0822123747585 1453.3437099391263
2351.658967145526 1502.6959022455019
2352.2355823429643 1552.2189199122447
2352.812057998144 1901.130108318845
2353.3883941421263 1872.2496935806205
2353.9645908059647 1843.3946771504063
2354.540648020693 1891.1260856495483
2355.116565817336 1720.4896622080983
2355.6923442269126 1692.3974612607512
2356.2679832804224 1478.790257464124
2356.8434830088518 1434.4084268918812
2357.41884344318 1641.1911862988468
2357.994064614377 1494.001195913851
