#exp_cfg={"servo_angle": 0.0, "laser_lim": 100.0, "servo_angle_to": 18.0, "laser_wup": 0.0, "bt_dev": "EnSpectr-25AE3", "laser_wdn_max": 0.0, "frames": 10.0, "servo_used": 0, "servo_calib_use": 0, "laser_wdn_min": 0.0, "servo_pix_from": 90.0, "cooler_tout": 300.0, "servo_angle_from": 0.0, "servo_calib": "[-1.9174921013161362e-09, 3.9322238269163779e-05, -0.27385609119055809, 653.59552119713567]", "laser_autoctl": 0, "servo_pix_to": 3682.0, "laser_pw": 100.0, "cooler_on": 0, "laser_volt": 4.0, "cooler_autoctl": 0, "cooler_curr": 70.0, "cooler_startup": 10.0, "laser_fixed_pw": 0, "gain": 1.3, "offset": 2.53059635486, "servo_calib_degree": 3.0, "laser_curr": 55.0, "shutter": 8200.0, "servo_calib_step": 1.0, "laser_fixed_curr": 0, "exp": 2000.0, "ccd_volt": 4.7, "bt_addr": "00:06:66:62:5A:E3", "servo_delay": 500.0, "laser_autooff": 1}
#proc_cfg={"flat_auto_wnd": 200.0, "flat_auto_fr": 200.0, "flat_auto_shift": 5.0, "yconv": 1, "flatten": 1, "flatten_strength": 100.0, "xfrom": 300.0, "auto_max_frame": 2000.0, "auto_signal": 48000.0, "flat_auto_tol": 0.1, "autoclip": 1, "xrel_range": 0.0, "flat_auto_to": 4000.0, "intensity_adj": 1.0, "xrel": 7852.0, "rmhot": 1, "flat_auto_slit": 4.999999999999997, "auto_ini_exp": 300.0, "auto_off": 0, "xto": 2860.0, "flat_auto_ref": "", "flat_auto_rank": 1, "autobackg": 0, "xrel_adj": 0.0, "auto_black_lvl": 1, "base_wnd": 100.0, "sub_baseline": 0, "xconv": 2, "auto_max_exp": 1000.0, "auto_total_exp": 10000.0, "auto_exp": 0, "rmripple": 0, "black_lvl": 8230.4125, "shutter_clip_adj": 0.0, "auto_bckg": 0, "flat_auto_thr": 0.9, "subbackg": 1}
316.8218498245369 14210.328230370505
317.89969571804795 14104.427312875294
318.977263876126 13905.368568213304
320.05455438786703 13843.567930341746
321.1315673423287 13815.536728153349
322.2083028285215 13862.844894953183
323.2847609354267 13706.766529616722
324.3609417519747 13781.69482032007
325.43684536705587 13574.023245765798
326.5124718695279 13547.15083620256
327.58782134820103 13636.72161517126
328.66289389184385 13524.602225825036
329.7376895891921 13470.296591259777
330.8122085289342 13429.72497521014
331.88645079971866 13319.785256047864
332.9604164901575 13249.946292794839
334.03410568881554 13277.366666811515
335.1075184842266 13380.424987923794
336.18065496487543 13171.148813651493
337.2535152192122 13129.692202332933
338.32609933564163 13196.772840220767
339.39840740253203 13157.56371756124
340.4704395082099 13028.643358729543
341.5421957409617 13010.716057375752
342.6136761890357 13104.26931160085
343.6848809406365 13003.859944314907
344.75581008392874 12971.92935233656
345.82646370703696 12876.94406610458
346.8968418980512 12832.220739306566
347.96694474501055 12907.28561161484
349.0367723359268 12829.024706320062
350.106324758759 12767.62728844788
351.1756021014353 12765.330608562728
352.2446044518383 12825.667004477033
353.31333189781435 12720.723532373757
354.38178452716966 12754.269111360061
355.449962427665 12777.582353420123
356.51786568702846 12707.318133965755
357.58549439294256 12878.49415173211
358.6528486330535 12865.43705563393
359.71992849496564 12745.835441035742
360.7867340662433 12774.342431352756
361.8532654344144 12764.536082250312
362.9195226869597 12856.962340301292
363.9855059113288 12586.169353109113
365.05121519492604 12705.188635476217
366.11665062511565 12763.146543573665
367.1818122892273 12751.252124573857
368.2467002745434 12680.397355858433
369.31131466831175 12761.680799537771
370.375655557742 12817.368847799335
371.4397230299983 12823.286627837193
372.5035171722102 12777.910105209168
373.5670380714637 12730.192241089171
374.6302858148101 12867.01469421622
375.6932604892554 12817.42648858506
376.7559621817709 12762.9004053243
377.81839097928605 12701.768282665033
378.8805469686886 12655.0548097792
379.94243023683157 12772.072706843439
381.0040408705263 12690.882347451272
382.0653789565458 12687.977100731468
383.1264445816196 12644.10088934657
384.1872378324406 12727.658273446761
385.2477587956637 12700.87240385227
386.3080075579037 12564.997664899103
387.3679842057336 12662.915871956899
388.4276888256918 12658.373935218233
389.48712150426945 12628.857810829588
390.54628232792857 12608.994997066093
391.6051713830857 12531.659756739347
392.66378875611736 12506.43906659907
393.7221345333637 12567.714398275324
394.7802088011249 12406.426688308082
395.838011645661 12427.885561648001
396.89554315319765 12361.170626955693
397.9528034099112 12364.203399324244
399.00979250194723 12293.931350115428
400.06651051541485 12356.036321001828
401.1229575363741 12291.382051774899
402.17913365085224 12338.392353437639
403.23503894483656 12364.228294660968
404.2906735042761 12189.056864386172
405.3460374150818 12259.823624329872
406.401130763119 12234.544363350342
407.455953634224 12192.577910983917
408.5105061141876 12238.822106227086
409.56478828876243 12086.650920183913
410.6188002436629 12145.45607409281
411.6725420645689 12124.426256914048
412.72601383711117 12121.529114614801
413.77921564689314 12163.982214867978
414.8321475794728 12024.708493042346
415.88480972036814 11943.181421930796
416.93720215506437 12104.10333866205
417.9893249690049 11891.137438087113
419.04117824759123 11851.682774123099
420.09276207619223 11845.866206705483
421.144076540133 11872.14189627783
422.1951217247042 11840.742308552015
423.24589771515275 11842.044058066369
424.2964045966928 11771.394575839831
425.34664245449494 11776.523985161011
426.3966113736933 11795.710638412493
427.4463114393875 11699.049407526247
428.49574273662984 11669.971169066253
429.5449053504417 11641.296473806846
430.5937993658026 11670.205807923016
431.6424248676558 11607.765946446458
432.6907819409007 11582.091168194485
433.73887067040596 11474.229233647598
434.7866911409965 11657.447126853604
435.8342434374608 11565.808236360148
436.88152764455117 11507.958939611473
437.9285438469724 11556.414488976594
438.9752921294057 11431.379225457218
440.02177257648145 11456.265989769077
441.06798527279716 11460.693365345796
442.1139303029122 11523.56571955807
443.1596077513459 11572.841315768123
444.2050177025794 11440.33123581503
445.25016024105753 11451.15139820139
446.2950354511886 11337.419402959666
447.33964341733736 11306.795139891521
448.383984223834 11307.493560853984
449.4280579549686 11292.091664912528
450.471864694995 11333.80740076286
451.5154045281306 11346.917364947463
452.5586775385509 11303.371236837167
453.60168381039693 11360.213913159832
454.64442342776783 11411.494955696575
455.6868964747264 11313.9505610367
456.7291030353008 11281.341948239398
457.77104319347563 11329.056640771156
458.8127170332027 11340.640846507973
459.854124638392 11229.11465490788
460.895266092919 11333.405157006786
461.93614148061897 11286.517082148404
462.97675088529104 11317.750422286383
464.01709439069236 11326.379736249408
465.0571720805492 11202.643926608236
466.0969840385442 11116.08694556254
467.1365303483253 11227.07252048561
468.17581109350067 11234.113630321579
469.2148263576437 11158.264333498162
470.2535762242878 11148.896252189941
471.29206077693016 11300.403485344385
472.33028009902773 11130.079097910977
473.3682342740012 11306.693493773926
474.40592338523857 11253.689202178324
475.4433475160804 11317.913980291207
476.4805067498364 11241.631907731593
477.51740116978 11373.530824636407
478.5540308591426 11396.185506760927
479.59039590112116 11500.698875829246
480.6264963788726 11581.001625012892
481.6623323755193 11716.965064951928
482.6979039741436 11766.387906614711
483.7332112577915 11950.64829121471
484.76825430947247 11983.64288908322
485.80303321215797 12110.865120376688
486.837548048783 12231.212453211727
487.8717989022425 12351.645930785464
488.90578585539697 12413.126168606697
489.9395089910686 12450.559492185823
490.97296839203955 12355.320559751708
492.00616414106116 12368.65591137229
493.0390963208429 12449.068989555384
494.0717650140559 12395.397385285638
495.10417030333883 12359.84865215568
496.1363122712901 12331.446528300405
497.16819100046814 12120.891635764969
498.1998065734024 12019.38028876849
499.2311590725767 11884.199093260062
500.26224858044407 11863.249820791343
501.2930751794156 11662.197948212455
502.3236389518679 11670.606920197253
503.35393998014115 11468.259021203226
504.38397834653733 11413.978326854649
505.4137541333221 11345.302788952322
506.4432674227228 11293.713690695304
507.4725182969323 11160.416819805178
508.5015068381035 11086.198344121174
509.53023312835467 11030.637474845767
510.55869724976765 10989.841463746823
511.58689928438434 10880.290544444586
512.6148393142121 10902.369061478648
513.6425174212218 10838.252752420398
514.6699336873462 10888.532744188962
515.6970881944835 10901.689722495677
516.7239810244901 10784.24753673016
517.7506122591931 10842.56951660629
518.7769819803761 10912.524552538016
519.8030902697901 10909.823388693754
520.8289372091476 11029.180179656345
521.8545228801249 11014.491131221544
522.8798473643619 10919.270522688215
523.9049107434621 10930.860392066901
524.9297130989908 10905.405069997843
525.9542545124805 10845.176050225244
526.9785350654201 10822.796288228365
528.0025548392696 10838.680101914622
529.0263139154504 10855.04801589155
530.0498123753423 10758.914932173011
531.073050300296 10706.655665883876
532.0960277716204 10676.913517159215
533.1187448705896 10741.006981423634
534.1412016784416 10655.830388962348
535.1633982763833 10687.451722199068
536.1853347455726 10600.723099870376
537.2070111671401 10498.140935105868
538.2284276221817 10546.028310271093
539.2495841917516 10443.656734387758
540.2704809568677 10409.472035694449
541.2911179985167 10473.892012278811
542.3114953976419 10358.465770197323
543.3316132351592 10315.478133758472
544.3514715919409 10248.029009914313
545.3710705488247 10280.286170301328
546.3904101866156 10241.303276618952
547.4094905860784 10313.233177762439
548.4283118279418 10178.963720688702
549.4468739929034 10223.061473120775
550.4651771616191 10217.339004786165
551.4832214147063 10181.459122415996
552.501006832761 10168.339678358425
553.5185334963226 10183.436286995759
554.5358014859103 10249.407102803965
555.5528108820035 10168.606019204904
556.5695617650363 10092.010101120019
557.5860542154242 10171.47892625665
558.6022883135283 10022.770368060297
559.6182641396881 10077.622550936063
560.6339817741991 10054.101682681981
561.6494412973225 10123.595207794584
562.6646427892883 10055.183240401455
563.6795863302796 10094.455554738115
564.694272000459 10085.897753477506
565.7086998799423 10067.356034427996
566.7228700488104 10095.923206774538
567.7367825871115 10031.262398961571
568.7504375748576 10051.579873537961
569.7638350920224 10034.061924819773
570.7769752185486 9989.130684553198
571.7898580343353 9994.449325877777
572.802483619258 10040.295082590976
573.8148520531431 10083.622424192714
574.8269634157932 10130.7701432406
575.8388177869692 10054.592104715626
576.8504152463938 10136.55287180006
577.8617558737587 10221.966279776172
578.8728397487175 10228.566543023837
579.883666950891 10297.989440964633
580.8942375598654 10283.912073750813
581.9045516551851 10400.409099712242
582.9146093163617 10445.51938829185
583.924410622878 10520.46009055228
584.9339556541727 10468.517104033377
585.9432444896538 10593.487318126212
586.9522772086875 10522.360635488458
587.9610538906127 10583.793570041471
588.9695746147318 10477.756439779823
589.9778394603054 10632.172593387024
590.985848506567 10570.341127686173
591.9936018327098 10490.642040710442
593.0010995178891 10440.708488513776
594.0083416412344 10488.68304364762
595.0153282818283 10310.084522039559
596.0220595187293 10341.520479341716
597.0285354309508 10233.04349621951
598.0347560974806 10207.000193528858
599.0407215972609 10228.254242411655
600.0464320092051 10103.501711951718
601.0518874121954 10141.378914066505
602.0570878850685 10118.283003131519
603.062033506636 10104.861132078937
604.0667243556636 10178.90626132428
605.0711605108936 10043.013770432972
606.0753420510264 10179.357829234968
607.0792690547278 10150.05665574343
608.082941600629 10134.604305712799
609.0863597673306 10030.16456594675
610.0895236333909 10191.77443611768
611.0924332773357 10153.719693481602
612.0950887776617 10307.631568346722
613.0974902128219 10237.74824243771
614.0996376612384 10391.616634538866
615.1015312013005 10362.311800243273
616.1031709113595 10409.02961608478
617.1045568697336 10357.628764258861
618.1056891547069 10507.185863781884
619.1065678445229 10631.12654664132
620.1071930173985 10866.886178324165
621.1075647515099 10800.525274120631
622.1076831250048 10899.876500290375
623.1075482159849 11021.536295436039
624.1071601025305 11117.130240071287
625.1065188626781 11249.7580447037
626.105624574433 11463.783023012511
627.1044773157682 11467.71131507027
628.1030771646128 11524.000868681862
629.1014241988742 11680.38053425655
630.0995184964158 11784.067932753063
631.0973601350688 11865.878811609457
632.0949491926294 11903.446106169304
633.0922857468631 11749.420789196358
634.089369875499 11814.142961154095
635.0862016562278 11800.41318077331
636.0827811667077 11797.44971810072
637.0791084845641 11744.360221013209
638.0751836873878 11659.710920691123
639.0710068527369 11617.845828671885
640.0665780581294 11498.318649970493
641.0618973810506 11283.463954415285
642.0569648989604 11191.119869272148
643.0517806892676 11047.936079115445
644.0463448293649 10968.366104735307
645.040657396592 10854.354240617584
646.0347184682723 10788.239514249912
647.0285281216875 10598.013319540074
648.0220864340772 10512.946778663885
649.0153934826558 10363.728737379295
650.0084493446047 10201.86252053361
651.0012540970674 10129.428901890311
651.9938078171526 10020.573112783632
652.9861105819346 9958.96774405056
653.9781624684565 9982.262403855362
654.9699635537254 9833.831679483093
655.9615139147136 9714.330822804346
656.9528136283589 9569.968165021057
657.9438627715699 9684.741089274152
658.9346614212154 9549.540336413753
659.925209654135 9443.517416470644
660.9155075471263 9489.810064758873
661.9055551769616 9390.322127190964
662.895352620375 9434.403045168616
663.8848999540678 9330.331325006551
664.8741972547068 9214.081402614109
665.863244598926 9289.130295399675
666.8520420633213 9307.19467451676
667.8405897244611 9264.774144567442
668.8288876588758 9121.195515688436
669.8169359430613 9226.887632442173
670.8047346534822 9161.957745550702
671.7922838665672 9166.00606539401
672.7795836587156 9168.786963884315
673.766634106285 9206.405908434721
674.7534352856092 9118.582485179859
675.7399872729766 9049.574599541456
676.7262901446538 9125.923177455039
677.712343976862 9150.681217696387
678.6981488457986 9201.539310636912
679.6837048276229 9122.38416966394
680.6690119984596 9122.716297099296
681.6540704344043 9130.745664068814
682.6388802115107 9095.103498842493
683.6234414058108 9118.986209704923
684.6077540932874 9036.353229763306
685.591818349907 9038.41372282612
686.575634251587 9004.148134748686
687.5592018742263 8989.938033246954
688.5425212936734 8954.746878481648
689.5255925857564 8989.79436069019
690.5084158262707 8970.556029994388
691.4909910909646 8880.957988443179
692.4733184555644 8732.516199208676
693.4553979957618 8848.267818594712
694.4372297872123 8826.260078802854
695.4188139055404 8782.651574377047
696.4001504263324 8767.202808885833
697.3812394251509 8801.798796746323
698.3620809775111 8746.074537606353
699.3426751589104 8773.085653058733
700.3230220448004 8705.5132038769
701.3031217106054 8700.290117503853
702.2829742317172 8735.373797881948
703.2625796834873 8728.936231497852
704.2419381412474 8700.143739487978
705.22104968028 8651.183840724443
706.1999143758458 8652.947182688758
707.178532303169 8593.308056615087
708.1569035374378 8636.412201150659
709.1350281538107 8673.723853345797
710.1129062274158 8681.204209010537
711.0905378333373 8706.784550565886
712.0679230466376 8636.026525417601
713.0450619423427 8700.374775758182
714.0219545954424 8649.673594632788
714.9986010808989 8650.750055349341
715.9750014736292 8648.052730280253
716.9511558485392 8730.67807786971
717.9270642804786 8751.114907468194
718.9027268442787 8801.226367796562
719.8781436147328 8723.342280075896
720.8533146666014 8685.893234810548
721.828240074612 8631.87816455659
722.8029199134635 8644.425625646063
723.7773542578125 8661.16026229747
724.751543182294 8555.069926285554
725.7254867615029 8569.364728801005
726.6991850700015 8541.02611999923
727.6726381823228 8491.399949361867
728.6458461729599 8458.037719017884
729.6188091163858 8493.273546642875
730.5915270870246 8474.458814669986
731.5640001592856 8364.95234340912
732.536228407529 8441.495364132434
733.5082119060917 8355.2953551311
734.4799507292755 8417.3806194385
735.4514449513481 8391.09980542745
736.4226946465496 8471.988293679364
737.3936998890786 8433.32197952033
738.3644607531078 8375.034889325174
739.3349773127793 8320.19107056851
740.3052496421951 8401.745475218453
741.27527781543 8344.937757084255
742.2450619065221 8329.579729007424
743.2146019894826 8360.325778865737
744.183898138288 8286.609793747157
745.1529504268801 8277.739685616913
746.1217589291682 8229.514225130744
747.0903237190341 8222.977571982006
748.058644870318 8281.039999051738
749.0267224568397 8171.255712010655
749.994556552374 8121.601022554105
750.9621472306771 8204.403092016466
751.9294945654583 8244.37739121661
752.8965986304011 8268.431577258696
753.8634594991636 8188.142131901819
754.8300772453586 8251.706765494258
755.7964519425768 8217.559098420797
756.762583664371 8246.722938841604
757.7284724842611 8202.545321897069
758.6941184757416 8187.748528945781
759.6595217122667 8232.093880256118
760.6246822672638 8245.124066829543
761.5896002141235 8146.600019048659
762.5542756262093 8256.12846634386
763.5187085768503 8209.977541125356
764.4828991393406 8204.585530597276
765.4468473869474 8207.336989814454
766.4105533929032 8147.229847897089
767.3740172304078 8062.033555634405
768.3372389726283 8108.930788068026
769.3002186926988 8070.850603817414
770.2629564637282 8015.85481124537
771.2254523587872 8039.350209612981
772.1877064509154 8036.084519462231
773.1497188131179 7969.276487422237
774.1114895183728 7950.288682489043
775.0730186396268 7925.819899359378
776.0343062497905 7817.188008183892
776.9953524217381 7865.911025101066
777.9561572283274 7908.341186434345
778.9167207423689 7886.968655976292
779.8770430366476 7855.250688976688
780.8371241839159 7823.704255027951
781.7969642568951 7791.356107770713
782.7565633282757 7902.678022448852
783.7159214707099 7762.889449558604
784.6750387568281 7739.020085491979
785.6339152592227 7748.9921807000765
786.5925510504512 7765.185611757988
787.5509462030477 7748.077139353687
788.5091007895098 7741.786310169383
789.4670148823006 7776.938119446551
790.4246885538596 7758.936647122387
791.3821218765861 7769.816962759028
792.3393149228505 7700.776253492126
793.2962677649975 7830.946190999821
794.2529804753303 7832.746005544572
795.20945312613 7814.655375792677
796.1656857896378 7742.690321714386
797.1216785380675 7684.313654338193
798.0774314435985 7787.6860976587095
799.0329445783846 7802.597521636121
799.9882180145414 7840.759071471717
800.9432518241574 7874.393980475278
801.89804607929 7964.111054905259
802.852600851962 7900.187227024022
803.8069162141637 7859.189592236724
804.760992237856 8029.291126822866
805.714828994971 7979.762421729955
806.6684265574077 7920.512380982349
807.6217849970271 7973.16521421974
808.574904385674 7949.098824685095
809.527784795142 7967.300065334796
810.4804262972102 8002.990611947242
811.4328289636178 7976.033643018323
812.3849928660748 7802.453910139129
813.3369180762638 7823.116528992718
814.2886046658241 7677.5073927552485
815.2400527063783 7650.080597270176
816.1912622695108 7611.000799829662
817.1422334267718 7566.18764020681
818.0929662496856 7508.862407302446
819.0434608097457 7551.01522696692
819.9937171784059 7414.0107318845385
820.9437354271013 7427.870766346334
821.8935156272255 7438.514942102805
822.8430578501484 7338.224556926405
823.7923621672016 7230.878846501323
824.7414286496896 7319.696394232116
825.6902573688876 7283.905850821288
826.6388483960363 7328.5197600795145
827.5872018023492 7257.222268824803
828.5353176590033 7311.988999607414
829.4831960371503 7208.939444338382
830.4308370079016 7219.455521240243
831.3782406423525 7284.9797437729885
832.3254070115545 7256.802347718394
833.2723361865319 7074.586431921556
834.2190282382799 7202.849131495534
835.1654832377644 7256.6655410136755
836.1117012559116 7139.834756509867
837.0576823636256 7218.50516926604
838.003426631778 7146.161661945092
838.9489341312074 7048.081736916238
839.8942049327197 7154.835462324979
840.8392391070975 7183.999118553217
841.7840367250865 7175.285078374986
842.7285978573982 7155.044973858261
843.672922574724 7154.137054603435
844.6170109477152 7185.618173627599
845.560863046996 7205.438107774848
846.5044789431595 7123.843459182482
847.4478587067697 7205.4325053380235
848.3910024083561 7164.415690528005
849.333910118421 7176.728257752358
850.2765819074339 7075.576823369603
851.2190178458332 7201.270223077404
852.161218004032 7164.881592319669
853.1031824524016 7200.694349182939
854.0449112612987 7127.950739381816
854.9864045010327 7138.837490339049
855.9276622418947 7105.11252885975
856.8686845541379 7178.221710497584
857.8094715079915 7081.139907678706
858.7500231736467 7172.009866441507
859.690339621271 7116.2253785275125
860.6304209209939 7137.199092103225
861.5702671429244 7010.585988720757
862.5098783571284 7036.5757067279
863.4492546336569 7135.7827040370885
864.3883960425155 7034.413397939832
865.3273026536863 7010.816438520471
866.2659745371238 7056.443088746288
867.2044117627465 7081.5034328051825
868.1426144004472 7063.135599408468
869.0805825200823 7068.907053051286
870.0183161914847 7178.125828243751
870.9558154844526 7154.091832200576
871.8930804687552 7142.62895025423
872.8301112141307 7140.499715207494
873.7669077902865 7223.38422220948
874.7034702669062 7297.452033002456
875.6397987136315 7288.396269952524
876.5758932000863 7220.046576527423
877.5117537958522 7296.654145563116
878.4473805704911 7347.517514985889
879.3827735935283 7277.179541544303
880.3179329344603 7251.29515837948
881.2528586627541 7337.257722004852
882.1875508478479 7265.369275433439
883.1220095591489 7277.9819086200805
884.0562348660296 7223.624677259673
884.9902268378391 7295.848430356428
885.9239855438955 7300.717964662215
886.8575110534839 7263.940283115289
887.7908034358588 7150.489905023931
888.7238627602474 7176.374143496922
889.6566890958475 7120.055922637059
890.5892825118208 7005.407711912526
891.5216430773125 6996.064016947326
892.4537708614189 6976.181557608719
893.3856659332196 6933.185158169241
894.3173283617652 6797.068000565041
895.2487582160684 6889.765272352464
896.179955565116 6842.124331408365
897.110920477864 6663.454155130312
898.0416530232451 6715.327884474464
898.9721532701478 6682.9845259800595
899.9024212874428 6725.039102122048
900.8324571439662 6614.945333361151
901.7622609085302 6600.91596033325
902.6918326499072 6507.964880411747
903.6211724368477 6620.64445402188
904.5502803380696 6568.786066700624
905.4791564222614 6597.012679904782
906.4078007580792 6562.9770089787435
907.3362134141571 6564.021351958094
908.2643944590909 6551.489168585803
909.1923439614493 6531.293042612879
910.1200619897754 6441.235149048507
911.0475486125779 6546.637071409634
911.9748038983344 6456.5482969689565
912.9018279155007 6462.261673582254
913.8286207324982 6377.71421262442
914.7551824177117 6442.768062804998
915.6815130395116 6478.122137580611
916.6076126662283 6436.743151462544
917.533481366163 6321.380707704638
918.4591192075914 6373.718716742064
919.3845262587565 6368.050897914252
920.3097025878706 6422.82432627395
921.2346482631237 6388.2771457828185
922.1593633526682 6496.377716557341
923.0838479246304 6329.551806789163
924.0081020471061 6368.646221108109
924.9321257881656 6350.260094985215
925.8559192158464 6321.377138150354
926.7794823981512 6284.676207712291
927.7028154030686 6311.567422507877
928.6259182985414 6271.228717381107
929.5487911524906 6392.112621207416
930.4714340328119 6306.134974199895
931.3938470073608 6225.780416342346
932.3160301439748 6289.671047648438
933.2379835104548 6223.407712816849
934.1597071745709 6356.985114172902
935.0812012040769 6279.493105345708
936.002465666681 6205.574993708578
936.9235006300696 6272.006014499067
937.8443061619055 6250.78307625791
938.7648823298077 6134.818230864015
939.6852292013809 6281.893215445854
940.6053468441951 6269.872145688061
941.5252353257874 6154.633839923806
942.4448947136698 6192.7544930750755
943.364325075323 6159.458259246366
944.2835264782043 6244.513892411344
945.2024989897309 6157.9376297362505
946.1212426773054 6224.212634815182
947.0397576082851 6184.744334506055
947.9580438500125 6180.269699504254
948.8761014697939 6194.495461176577
949.7939305349064 6196.043289700628
950.7115311125999 6202.993871784723
951.6289032700952 6236.262972487517
952.5460470745875 6164.235454920168
953.4629625932339 6127.97300482127
954.3796498931715 6258.126342070262
955.2961090415029 6210.7256414505255
956.2123401053068 6192.110407619178
957.1283431516276 6219.896573191952
958.0441182474842 6086.139416785746
958.9596654598663 6120.61699252136
959.8749848557309 6122.353010127661
960.7900765020167 6144.661696618889
961.7049404656209 6171.078001063635
962.6195768134185 6138.688898759154
963.5339856122537 6127.770068260588
964.4481669289453 6172.352810922103
965.3621208302793 6075.389148359149
966.2758473830145 6151.493134472377
967.1893466538822 6160.856986146571
968.1026187095813 6086.61814834899
969.0156636167867 6111.981375585006
969.9284814421426 6101.3674229514945
970.8410722522622 6078.779067764587
971.753436113735 6169.318602238435
972.6655730931161 6068.5057866504385
973.5774832569368 6176.992821664225
974.4891666716958 6024.771105641959
975.4006234038698 6113.579060742622
976.3118535198955 6053.567478156084
977.2228570861935 6112.8864796906455
978.1336341691494 6117.677596707029
979.0441848351202 6114.8002272420035
979.9545091504333 6116.137810129969
980.864607181391 6195.4606540234145
981.7744789942699 6119.289367875996
982.6841246553086 6134.458676526168
983.5935442307236 6159.528648880363
984.5027377867027 6198.39425594279
985.4117053894024 6121.758090619135
986.3204471049557 6157.5400077271925
987.2289629994648 6127.074684958319
988.1372531390007 6192.742131802286
989.0453175896091 6038.397192289247
989.9531564173067 6140.82928196673
990.860769688079 6053.44789967645
991.7681574678918 6167.772244096859
992.6753198226706 6161.477148312396
993.582256818323 6233.4077977188845
994.4889685207218 6156.252692161418
995.3954549957143 6239.808955173235
996.301716309119 6275.053940079362
997.2077525267232 6234.747431418543
998.1135637142943 6196.443040753677
999.0191499375615 6292.675531527949
999.924511262232 6198.885643687414
1000.8296477539861 6244.164586626122
1001.7345594784656 6290.346468260525
1002.6392465012996 6268.645584518016
1003.5437088880753 6176.011624488958
1004.4479467043584 6184.3613831620505
1005.3519600156869 6117.381635249467
1006.2557488875718 6135.102598557894
1007.1593133854858 6133.967946890962
1008.0626535748888 6122.215567684492
1008.9657695212009 6099.807837834635
1009.8686612898182 6238.919787420155
1010.7713289461135 6137.607060337864
1011.6737725554212 6117.809001826939
1012.5759921830577 6100.960553720736
1013.4779878943027 6161.274869973511
1014.379759754418 6121.25901578403
1015.2813078286254 6050.169693142789
1016.18263218213 6037.723044148329
1017.0837328801026 6049.438890615666
1017.9846099876886 6091.274767122423
1018.8852635700023 6001.216820203065
1019.7856936921362 6025.9114238379425
1020.6859004191447 6034.874171639696
1021.5858838160675 6042.358330632333
1022.4856439479063 5952.016985712088
1023.3851808796389 5938.514088758338
1024.2844946762143 5934.446728792255
1025.183585402554 5910.929739458422
1026.082453123554 5984.363201916661
1026.9810979040776 5902.966274693684
1027.8795198089647 5858.445505479684
1028.777718903024 5881.50953936866
1029.6756952510368 5790.129468921963
1030.5734489177648 5851.150518921274
1031.4709799679313 5879.009151397332
1032.3682884662358 5847.764629946791
1033.2653744773506 5796.936566903923
1034.1622380659192 5808.673852446094
1035.058879296559 5831.047073025387
1035.9552982338591 5863.029099369187
1036.8514949423825 5721.643658782863
1037.7474694866614 5786.28888621391
1038.6432219312028 5811.105269731768
1039.5387523404825 5748.891188548284
1040.4340607789582 5789.975538826032
1041.3291473110476 5768.177088625385
1042.2240120011465 5849.0715462248
1043.1186549136273 5906.839017918313
1044.0130761128294 5876.469304679065
1044.9072756630649 5904.353643103497
1045.8012536286205 5968.716473385726
1046.6950100737577 5825.719464426082
1047.588545062701 5898.903210362243
1048.481858659663 5905.7951024739
1049.3749509288118 5983.4748752543255
1050.2678219343034 5928.857575975664
1051.1604717402515 5911.223396128195
1052.0529004107575 5917.608712899433
1052.9451080098825 6013.676889763352
1053.8370946016694 5987.658207620194
1054.7288602501267 5922.653571420389
1055.6204050192446 5953.5459274632285
1056.511728972977 6045.4972186573195
1057.402832175254 5969.345203586463
1058.2937146899785 5939.440258795926
1059.1843765810263 5943.522711815149
1060.0748179122456 6022.233832021344
1060.9650387474576 6038.66524537041
1061.855039150456 6040.326722668948
1062.7448191850071 5976.958584279605
1063.6343789148505 5933.561125687613
1064.5237184037014 6020.382316046636
1065.412837715241 5972.324158132977
1066.3017369131267 5943.24049974169
1067.190416060992 6038.510474216049
1068.0788752224398 5894.767160740343
1068.9671144610438 5967.748922559428
1069.8551338403558 5878.616128069587
1070.7429334239023 6043.101115787302
1071.6305132751695 5904.181214761525
1072.517873457633 5921.8504026672745
1073.4050140347335 5872.322595042644
1074.2919350698776 5841.71094117869
1075.1786366264623 5789.18381726921
1076.0651187678395 5828.519061692672
1076.95138155735 5768.505120211046
1077.8374250582929 5689.501807047813
1078.7232493339507 5670.108715307383
1079.608854447577 5602.576522578087
1080.4942404623907 5678.183533863021
1081.3794074415982 5692.511642113279
1082.2643554483657 5581.398800913742
1083.149084545841 5658.156058927028
1084.033594797138 5456.085992864927
1084.9178862653516 5617.133295028683
1085.8019590135427 5562.725589796942
1086.6858131047484 5494.474636364708
1087.5694486019802 5558.545694144522
1088.4528655682225 5523.350093938492
1089.3360640664287 5531.564131266637
1090.2190441595321 5427.729454642867
1091.1018059104317 5529.270579264917
1091.98434938201 5488.888008984231
1092.866674637111 5509.084039543764
1093.748781738559 5502.579097960882
1094.6306707491512 5442.22763489373
1095.5123417316554 5421.071816554356
1096.3937947488157 5424.277138161708
1097.2750298633455 5355.9501128206675
1098.156047137938 5387.965081758219
1099.0368466352556 5457.645716065837
1099.9174284179317 5347.848275462874
1100.7977925485757 5440.820107945839
1101.6779390897755 5356.932261655855
1102.5578681040806 5386.235348617115
1103.4375796540226 5432.680101661541
1104.3170738021054 5359.150742789821
1105.1963506108077 5306.123414530578
1106.0754101425773 5350.3978905302965
1106.9542524598382 5377.1185908781345
1107.8328776249855 5380.6331175511095
1108.7112857003904 5393.760050932826
1109.5894767483987 5398.900140000719
1110.4674508313292 5361.897365426257
1111.3452080114657 5406.542154769078
1112.2227483510815 5445.78410666243
1113.1000719124077 5495.365412256995
1113.9771787576592 5538.369644717967
1114.854068949022 5511.321374248307
1115.7307425486542 5451.943873211143
1116.6071996186893 5570.362197835212
1117.483440221229 5630.283374122876
1118.3594644183577 5641.615547816288
1119.235272272128 5609.861739101447
1120.1108638445658 5737.688007913389
1120.9862391976712 5797.359874574318
1121.8613983934229 5892.716591072729
1122.7363414937627 5817.381071003477
1123.6110685606182 5911.66315329174
1124.485579655884 5919.514528310738
1125.359874841426 5922.6384126217245
1126.2339541790916 5929.166485249678
1127.1078177306936 6077.319085147861
1127.9814655580267 6061.1487175560005
1128.854897722851 6075.544889132621
1129.7281142869106 6097.542612393895
1130.6011153119125 6163.529882874233
1131.473900859548 6174.8561981100875
1132.3464709914697 6139.694324183494
1133.2188257693178 6022.365214845917
1134.0909652546961 6043.654285201714
1134.96288950919 5973.3949000812545
1135.8345985943506 6044.395841433012
1136.7060925717087 5909.743975883134
1137.57737150277 5938.32681952066
1138.4484354490069 5778.743303274828
1139.3192844718778 5805.154502219613
1140.1899186327992 5689.156955729329
1141.060337993178 5769.099360342055
1141.930542614382 5613.25258915523
1142.8005325577597 5656.436496900793
1143.670307884635 5496.51127560506
1144.5398686563003 5577.132419365976
1145.409214934025 5414.193243107226
1146.2783467790541 5377.379624232974
1147.1472642526023 5335.165238723296
1148.0159674158622 5382.89398847704
1148.8844563300026 5242.050427977987
1149.7527310561618 5202.507811170564
1150.6207916554504 5197.255325307574
1151.4886381889592 5124.737504563809
1152.3562707177498 5092.8700845498615
1153.2236893028585 5086.086582820631
1154.090894005296 5103.628209982341
1154.9578848860474 5049.664052295851
1155.8246620060709 4986.579776775038
1156.6912254262988 4985.424811054416
1157.5575752076438 5038.698964916874
1158.42371141098 5082.755478442099
1159.2896340971656 4980.12376521772
1160.1553433270346 4999.852718814079
1161.0208391613887 4998.967207161471
1161.8861216610057 5026.54826849607
1162.75119088664 4980.627180364632
1163.6160468990201 4882.807965263529
1164.4806897588442 4909.961698746853
1165.3451195267917 4977.175045765556
1166.2093362635114 5065.632479286433
1167.0733400296285 4892.185315752098
1167.9371308857444 4876.318814430813
1168.8007088924278 4939.756128773697
1169.6640741102328 4935.532017766151
1170.5272265996773 4892.299864120733
1171.390166421259 4751.844469790117
1172.252893635452 4930.14407900008
1173.1154083026995 4898.1856333007345
1173.977710483421 4912.996639038455
1174.8398002380145 4893.111971540408
1175.7016776268483 4928.889752475532
1176.563342710264 4953.325071463564
1177.4247955485826 4824.932004823341
1178.2860362020947 4898.099490893551
1179.147064731069 4907.005572154943
1180.0078811957483 4928.327638891193
1180.8684856563486 4929.436664201298
1181.7288781730604 4857.160675445398
1182.589058806052 4981.296008131802
1183.4490276154593 5075.065526420918
1184.3087846614017 4986.890648065655
1185.1683300039676 5062.546356890534
1186.027663703222 5095.031990741133
1186.8867858192025 5094.220445811718
1187.7456964119228 5140.58725569381
1188.6043955413716 5077.544111454127
1189.4628832675116 5193.61047214725
1190.3211596502842 5176.838980184361
1191.179224749596 5241.063105266092
1192.0370786253388 5174.976133005907
1192.8947213373758 5268.041049622938
1193.7521529455407 5357.317307005701
1194.6093735096438 5295.339707241243
1195.466383089477 5263.491355276124
1196.3231817447977 5359.773337477249
1197.1797695353398 5327.045427756945
1198.0361465208189 5289.516286654236
1198.8923127609214 5262.978295070359
1199.7482683153048 5342.043313993966
1200.6040132436028 5349.7470965739685
1201.459547605431 5337.71381782119
1202.3148714603722 5179.0944286177255
1203.1699848679855 5285.296979671992
1204.0248878878065 5281.363302425414
1204.8795805793507 5227.177253280928
1205.7340630020935 5228.983562631328
1206.5883352155033 5328.330284935471
1207.4423972790064 5197.313789566746
1208.2962492520237 5180.476960569913
1209.1498911939307 5238.423453852984
1210.0033231640937 5181.400223066512
1210.8565452218427 5119.203312485244
1211.7095574264913 5109.312135927984
1212.5623598373222 5054.303385774622
1213.4149525135963 4988.833867095314
1214.2673355145507 5041.383789036456
1215.1195088993936 4970.614284555768
1215.9714727273113 4948.49870231288
1216.8232270574663 4962.614139373387
1217.6747719489904 4835.979274598074
1218.5261074609934 4886.282920619566
1219.3772336525653 4818.634580900313
1220.2281505827668 4885.507814971596
1221.0788583106296 4865.810343906675
1221.9293568951707 4901.0188479237295
1222.7796463953746 4853.954164006983
1223.629726870202 4750.191898577051
1224.4795983785934 4799.412354262978
1225.3292609794553 4872.08222815455
1226.1787147316809 4821.5864108305705
1227.0279596941327 4805.403475740847
1227.8769959256424 4795.126773172002
1228.7258234850306 4857.110625507267
1229.5744424310833 4740.2829471022405
1230.422852822563 4766.886827700959
1231.2710547182105 4796.124051065306
1232.119048176739 4797.27395583522
1232.9668332568417 4759.434010267345
1233.8144100171812 4802.544166850091
1234.6617785163999 4800.675896569976
1235.508938813111 4767.980787492153
1236.3558909659114 4754.846274360969
1237.2026350333617 4801.403162421243
1238.049171074008 4807.407134135162
1238.8954991463652 4758.773378201409
1239.741619308932 4691.537421250996
1240.587531620169 5070.460756662807
1241.4332361385277 4756.774573719246
1242.2787329224248 4791.155033609095
1243.1240220302534 4753.379999584646
1243.9691035203869 4751.442355398705
1244.813977451171 4706.965416965357
1245.6586438809263 4840.512708291082
1246.5031028679496 4613.708214513142
1247.3473544705157 4706.442770922384
1248.1913987468706 4674.168746934137
1249.0352357552383 4623.547620150814
1249.8788655538228 4661.457300900971
1250.7222882007918 4644.555245609111
1251.565503754302 4695.698457850736
1252.4085122724755 4717.5874431543
1253.2513138134182 4725.720197820912
1254.0939084352049 4690.126845162169
1254.9362961958905 4682.668052890712
1255.7784771535007 4619.849281970137
1256.6204513660432 4726.013835841969
1257.4622188915 4755.9329012650605
1258.3037797878242 4712.536016508252
1259.1451341129468 4643.554071908177
1259.9862819247755 4730.37651846798
1260.8272232811978 4660.299440821042
1261.6679582400666 4708.2565398781435
1262.5084868592203 4576.284241021765
1263.34880919647 4553.048582408419
1264.1889253095997 4650.765447936011
1265.0288352563712 4683.708748787667
1265.8685390945266 4597.35980755175
1266.7080368817751 4599.186292895778
1267.5473286758115 4687.123515157109
1268.386414534294 4591.982753668982
1269.2252945148703 4512.355094862941
1270.0639686751547 4455.087557560344
1270.9024370727402 4569.690172664174
1271.7406997651997 4491.078218882135
1272.5787568100714 4540.542326433942
1273.4166082648808 4450.3108675811645
1274.2542541871244 4599.421922674674
1275.091694634275 4545.880216175731
1275.9289296637817 4467.823176093016
1276.7659593330663 4502.277776939021
1277.6027836995308 4472.220471546541
1278.4394028205552 4449.603469703229
1279.2758167534867 4447.112221187568
1280.112025555658 4501.234092870609
1280.9480292843746 4454.935532886599
1281.7838279969128 4437.653947786515
1282.6194217505326 4459.713244325193
1283.4548106024686 4365.021544344743
1284.289994609926 4429.942298826848
1285.1249738300921 4538.913837351052
1285.959748320127 4447.593119711036
1286.7943181371702 4399.15917841664
1287.6286833383328 4454.841350560086
1288.4628439807038 4480.806023795691
1289.2968001213521 4443.614997858385
1290.1305518173194 4455.837645658661
1290.9640991256183 4522.505824423813
1291.7974421032523 4397.110921762318
1292.630580807183 4462.729909738062
1293.463515294361 4409.776822280481
1294.29624562171 4443.412705466208
1295.12877184613 4393.261156815861
1295.961094024493 4397.800459872928
1296.79321221365 4477.440421824605
1297.6251264704333 4508.266724757087
1298.4568368516466 4531.220686294187
1299.2883434140658 4499.736089803014
1300.1196462144526 4431.508116925177
1300.9507453095375 4488.774042650734
1301.7816407560313 4479.105327671045
1302.6123326106172 4442.089674028031
1303.4428209299622 4459.277011557348
1304.2731057707024 4574.652873979699
1305.1031871894502 4451.315920119845
1305.933065242798 4511.4117194680375
1306.7627399873181 4511.084934945414
1307.5922114795467 4640.713631411702
1308.4214797760123 4825.542515360264
1309.2505449332057 4536.106118594866
1310.0794070076026 4628.155241331433
1310.9080660556538 4628.89204388791
1311.736522133786 4546.627618999936
1312.5647752983987 4550.566739816323
1313.3928256058734 4521.726301399104
1314.2206731125661 4562.754665799419
1315.048317874809 4612.879547405714
1315.8757599489109 4631.336920579495
1316.7029993911547 4604.43290704186
1317.5300362578055 4734.016455164697
1318.356870605101 4439.998972361127
1319.183502489257 4590.003907273743
1320.0099319664623 4490.383165250727
1320.836159092889 4540.620379296544
1321.66218392468 4607.290199346211
1322.4880065179532 4524.585967633104
1323.3136269288134 4547.460251823775
1324.1390452133292 4650.264931681928
1324.9642614275563 4523.409834900559
1325.7892756275214 4669.718227848044
1326.6140878692295 4498.242912985092
1327.4386982086617 4634.91765371158
1328.2631067017755 4650.6671898774775
1329.0873134045069 4587.540756369059
1329.911318372764 4571.617605039773
1330.735121662441 4586.648192817567
1331.558723329399 4564.111535589234
1332.3821234294774 4555.714982486729
1333.2053220185007 4594.367023480175
1334.0283191522612 4550.94065232589
1334.851114886529 4593.705659828987
1335.6737092770582 4601.659241445306
1336.4961023795695 4516.699649790251
1337.3182942497697 4652.890761286405
1338.1402849433325 4733.817410173605
1338.962074515921 4488.50111827213
1339.7836630231632 4477.9329392561385
1340.6050505206676 4586.570431301861
1341.426237064028 4582.894143844667
1342.2472227088037 4443.373777029735
1343.0680075105338 4464.413384525516
1343.888591524741 4443.051301891102
1344.7089748069138 4567.652914366288
1345.5291574125276 4436.983409508734
1346.3491393970307 4367.809753780524
1347.168920815846 4504.541578495059
1347.9885017243778 4462.7859230388585
1348.8078821780036 4455.219383517164
1349.6270622320844 4344.068887557343
1350.4460419419447 4408.113203175033
1351.2648213629054 4490.437363319199
1352.0834005502438 4320.061623934665
1352.90177955923 4447.332210279745
1353.7199584451064 4522.657509238258
1354.5379372630887 4507.823373572647
1355.355716068374 4369.192267465247
1356.1732949161305 4412.57962278227
1356.9906738615155 4399.627019490151
1357.8078529596478 4464.906783855207
1358.6248322656375 4410.306166960618
1359.441611834567 4305.833159952401
1360.2581917214866 4476.708845674171
1361.0745719814367 4322.760072063392
1361.890752669433 4346.534430362936
1362.7067338404577 4338.65041353182
1363.5225155494845 4460.999859343081
1364.3380978514506 4455.607320152207
1365.1534808012839 4371.289924231448
1365.9686644538815 4287.231385657587
1366.783648864117 4423.7668374348095
1367.5984340868417 4354.746256824949
1368.413020176893 4390.509688219819
1369.2274071890715 4386.881606231409
1370.0415951781652 4416.538330801179
1370.8555841989346 4242.977809490375
1371.6693743061223 4273.804110057654
1372.48296555444 4250.233890000991
1373.2963579985844 4437.422682546521
1374.1095516932255 4260.333947931254
1374.9225466930166 4241.375154240567
1375.7353430525782 4149.353613769809
1376.5479408265164 4212.5825640673265
1377.36034006941 4241.212673292665
1378.1725408358216 4214.338388269586
1378.9845431802805 4132.376168368452
1379.796347157304 4382.010143285782
1380.6079528213813 4318.783432427676
1381.4193602269788 4184.7695439434065
1382.230569428546 4171.171060324984
1383.0415804805016 4309.3162983690745
1383.852393437246 4242.097095592212
1384.6630083531563 4332.113752353992
1385.4734252825892 4232.567400442371
1386.2836442798798 4336.0422225196435
1387.0936653993322 4335.7598890542
1387.9034886952395 4163.204569276185
1388.713114221864 4314.4730886608
1389.5225420334482 4256.286615696348
1390.331772184214 4218.440311833215
1391.1408047283585 4268.916530583601
1391.9496397200564 4217.41886160612
1392.758277213461 4302.341451102884
1393.5667172627054 4296.02856884519
1394.3749599218918 4217.260258700395
1395.1830052451114 4014.091620417563
1395.9908532864265 4187.957310165935
1396.7985040998774 4216.468998473729
1397.6059577394808 4176.852392331927
1398.4132142592352 4161.042106295951
1399.2202737131156 4157.220057252884
1400.027136155073 4076.147961353713
1400.8338016390353 4103.620613986794
1401.6402702189134 4121.191689287759
1402.446541948586 4140.305702206246
1403.2526168819204 4128.954726085718
1404.058495072757 4160.9130514100725
1404.8641765749107 4088.247179127844
1405.6696614421799 4129.370149482819
1406.4749497283356 4186.926486073869
1407.280041487129 4025.7730398443846
1408.084936772295 3977.750729185609
1408.8896356375335 4098.407374968849
1409.6941381365323 4082.459129961289
1410.498444322955 3986.545353505256
1411.3025542504402 4012.182220655336
1412.106467972606 4084.041263033989
1412.9101855430508 4018.3160608424814
1413.7137070153458 3932.1944610662817
1414.5170324430437 3935.5925877061154
1415.320161879672 4008.335622382406
1416.1230953787435 4099.295671594427
1416.925832993742 3872.438700869364
1417.7283747781275 3792.4624519798936
1418.5307207853439 3831.077792015364
1419.3328710688093 3854.7790983052137
1420.134825681922 3830.4105033856895
1420.9365846780584 3885.400237389263
1421.7381481105713 3932.3799400049766
1422.539516032788 3806.4464767173317
1423.3406884980232 3821.076586942512
1424.1416655595604 3839.207082689424
1424.942447270665 3754.9153879890787
1425.7430336845828 3791.9984213164826
1426.5434248545298 3765.9957077851386
1427.3436208337116 3767.800598387143
1428.143621675301 3854.5906986136783
1428.9434274324558 3874.8693567551736
1429.7430381583108 3680.435056451349
1430.5424539059713 3787.599592235342
1431.3416747285337 3918.6397630439888
1432.1407006790632 3692.7987414882564
1432.9395318106053 3741.270687956847
1433.7381681761835 3755.9863853822135
1434.5366098288014 3671.3168179389554
1435.3348568214424 3723.0526151535655
1436.1329092070573 3807.5664678666567
1436.9307670385879 3761.4230477540195
1437.7284303689503 3855.6602947926185
1438.5258992510335 3821.3959107761775
1439.3231737377118 3709.4212839772417
1440.1202538818306 3805.8940550525426
1440.9171397362225 3781.0009546924157
1441.7138313536925 3749.9130698418567
1442.5103287870243 3718.833438980257
1443.3066320889775 3680.268587020736
1444.1027413122956 3792.4086777504795
1444.8986565096966 3700.462351097168
1445.694377733882 3754.7530839957335
1446.4899050375207 3596.8757555985007
1447.2852384732687 3562.999865700637
1448.0803780937622 3760.883867191431
1448.8753239516063 3614.6517593109093
1449.6700760993954 3560.065994194737
1450.464634589689 3617.540178130331
1451.2589994750397 3650.82195390952
1452.0531708079689 3714.070089043471
1452.8471486409799 3672.9287146170145
1453.6409330265524 3743.118333123116
1454.4345240171442 3605.362518311972
1455.2279216651987 3717.1800116141812
1456.0211260231263 3588.4729870920405
1456.8141371433194 3670.9695426441444
1457.6069550781594 3615.1408494847383
1458.3995798799897 3536.0834767797264
1459.1920116011424 3597.374875641789
1459.98425029393 3567.5753864074477
1460.7762960106338 3530.1325628911536
1461.5681488035225 3563.5334897991024
1462.3598087248392 3605.0449252397775
1463.1512758268036 3493.3658833921677
1463.942550161617 3658.9090658211157
1464.7336317814625 3545.875809393235
1465.524520738496 3569.839587881366
1466.3152170848552 3489.3053910018134
1467.1057208726506 3616.6892641737454
1467.8960321539817 3433.6699121948104
1468.6861509809169 3418.812833734467
1469.4760774055085 3489.837244293244
1470.265811479785 3663.2563087693475
1471.055353255755 3430.5542517202243
1471.844702785409 3471.931844966799
1472.6338601207044 3514.516208365362
1473.4228253135934 3961.5657703254255
1474.2115984159936 3501.5790639927336
1475.0001794798063 3380.8811379698245
1475.7885685569145 3464.252002322092
1476.576765699172 3499.66765816639
1477.3647709584238 3572.292221867515
1478.1525843864802 3574.274364548322
1478.9402060351367 3540.1543785720073
1479.7276359561693 3573.036907668286
1480.514874201328 3457.016551272479
1481.3019208223468 3481.25040301184
1482.0887758709323 3518.416357961594
1482.8754393987747 3525.4274584030454
1483.6619114575406 3331.4031008951583
1484.4481920988783 3591.1110953103225
1485.2342813744108 3522.6164730161086
1486.0201793357446 3516.353217466789
1486.8058860344572 3441.431341265122
1487.591401522117 3428.7885965110754
1488.3767258502594 3504.041071575762
1489.1618590704056 3518.259373743857
1489.9468012340494 3432.0831265128736
1490.7315523926754 3436.753101590829
1491.5161125977356 3618.723383703461
1492.3004819006637 3513.2385930857504
1493.084660352877 3426.01589499511
1493.8686480057622 3388.1160168320484
1494.6524449106964 3671.6669414505513
1495.4360511190262 3560.3768785401226
1496.219466682087 3440.5988234146607
1497.0026916511779 3614.682674999497
1497.7857260775945 3487.0135152894436
1498.5685700125996 3531.489243769562
1499.3512235074395 3523.9502003299153
1500.133686613337 3451.141377570542
1500.9159593814966 3446.634771766927
1501.698041863101 3483.602531576116
1502.4799341093094 3397.758894523374
1503.2616361712662 3435.679571411479
1504.043148100087 3467.269729672314
1504.8244699468742 3472.6486835461487
1505.6056017626997 3462.001404045203
1506.3865435986281 3302.6635640365603
1507.1672955056893 3390.5067668556476
1507.9478575348967 3379.566025469172
1508.7282297372512 3496.7685417632865
1509.5084121637192 3378.0774917442586
1510.2884048652577 3372.8402498864443
1511.0682078927948 3395.1592651627734
1511.8478212972423 3380.743218459082
1512.6272451294917 3294.878752208512
1513.4064794404076 3397.484133224517
1514.1855242808433 3428.1916340950797
1514.9643797016215 3431.9885757036927
1515.743045753552 3334.1701981800848
1516.5215224874191 3528.4050992499024
1517.2998099539836 3226.8483436962492
1518.077908203999 3293.7093883369826
1518.8558172881785 3359.678392161318
1519.633537257234 3502.8082829734217
1520.4110681618404 3336.9276493668995
1521.1884100526604 3383.4778397345603
1521.9655629803365 3408.161165937245
1522.7425269954856 3476.9288734070424
1523.5193021487103 3374.9593926359366
1524.2958884905856 3338.3256939595085
1525.0722860716687 3418.6716498052438
1525.848494942502 3459.810744509579
1526.624515153595 3349.2878599059454
1527.4003467554485 3430.8916336977636
1528.175989798534 3472.6209262937314
1528.9514443333064 3346.406648425378
1529.726710410203 3582.00462709832
1530.5017880796331 3336.714410769638
1531.276677391992 3431.3425522083367
1532.0513783976457 3463.1040898813108
1532.825891146953 3514.566952889968
1533.6002156902414 3608.6335053769376
1534.3743520778207 3480.305003000098
1535.1483003599806 3415.53201611036
1535.9220605869923 3395.317121233228
1536.6956328091019 3467.4705035488064
1537.4690170765407 3515.7646710319873
1538.242213439511 3561.240442631788
1539.015221948208 3459.888441750969
1539.78804265279 3459.6841262674498
1540.560675603405 3324.5990383809426
1541.3331208501804 3461.0107539145074
1542.1053784432224 3556.3571882681863
1542.8774484326168 3581.2563188535837
1543.649330868422 3488.8551508971964
1544.4210258006842 3520.41680368339
1545.1925332794308 3447.2467122679795
1545.9638533546604 3498.4718019446964
1546.7349860763552 3429.380349653476
1547.5059314944829 3607.576735712669
1548.27668965898 3528.9067486143103
1549.0472606197673 3680.249188040799
1549.817644426752 3439.1065032033885
1550.5878411298072 3467.530310604906
1551.3578507787988 3564.448991431245
1552.1276734235635 3511.1198631554385
1552.8973091139233 3543.337140799912
1553.6667578996767 3603.989983494014
1554.436019830604 3575.1409638587074
1555.20509495646 3620.053946442423
1555.9739833269869 3423.418848652601
1556.7426849919011 3461.575296275131
1557.511200000903 3686.9146390271235
1558.2795284036674 3546.1713616954394
1559.0476702498509 3590.197134935611
1559.8156255890954 3593.671927569017
1560.5833944710157 3646.7783198925863
1561.3509769452048 3558.5657486797195
1562.1183730612447 3562.061688288132
1562.8855828686865 3563.972702108623
1563.6526064170703 3742.5656226546116
1564.4194437559127 3717.751313280155
1565.1860949347047 3530.9073502848223
1565.9525600029283 3691.844667453496
1566.7188390100328 3652.2230340002848
1567.4849320054564 3685.326097323079
1568.250839038612 3580.50077734945
1569.0165601588997 3565.0410977943748
1569.7820954156887 3644.961851546434
1570.5474448583373 3344.544745419176
1571.31260853618 3511.5191079808837
1572.0775864985299 3451.628550100012
1572.8423787946813 3559.7132392891426
1573.6069854739108 3527.0478184798276
1574.371406585471 3600.3436165511025
1575.1356421785986 3603.131267415893
1575.899692302506 3587.5837664556943
1576.6635570063845 3600.2043808194235
1577.4272363394157 3430.5369453635476
1578.190730350747 3517.445941259373
1578.9540390895163 3415.0168213880957
1579.7171626048384 3366.168447462353
1580.480100945806 3445.1744719754606
1581.2428541614918 3418.3870137314275
1582.0054223009538 3368.8969324277846
1582.767805413223 3522.600849427574
1583.5300035473156 3432.4233158398906
1584.292016752228 3439.2544613604427
1585.0538450769309 3351.6975555122253
1585.8154885703807 3480.658530192304
1586.5769472815136 3417.8479301300736
1587.3382212592405 3541.1646398041535
1588.099310552463 3554.5303468846987
1588.8602152100484 3391.4430442995663
1589.6209352808564 3505.9442565900754
1590.3814708137234 3564.1146329591465
1591.14182185746 3352.7581003059304
1591.9019884608679 3577.998787599029
1592.6619706727215 3360.3950318992756
1593.4217685417734 3531.844880717038
1594.1813821167616 3677.0990075340655
1594.9408114464022 3370.6457779976045
1595.7000565793933 3538.3729653301402
1596.459117564409 3565.63915987237
1597.2179944501113 3479.9693863199827
1597.9766872851324 3539.122108190295
1598.735196118092 3443.656594212309
1599.4935209975883 3582.675505254648
1600.2516619721973 3563.047223891859
1601.0096190904787 3496.449095651423
1601.7673924009723 3552.6409571135896
1602.524981952196 3545.1191610318847
1603.2823877926476 3481.601907878502
1604.0396099708087 3455.0709148922033
1604.7966485351371 3442.960045435353
1605.5535035340745 3461.9875305495734
1606.3101750160404 3552.9341471768093
1607.0666630294363 3447.0213959660737
1607.822967622642 3395.648398252701
1608.5790888440224 3412.932270521406
1609.3350267419137 3541.7257929660454
1610.0907813646445 3460.4300613715213
1610.8463527605145 3493.9357020856187
1611.601740977805 3448.3181246001113
1612.356946064785 3475.5403733150392
1613.1119680696902 3385.5579975015526
1613.8668070407512 3399.395912682059
1614.6214630261748 3341.586594521177
1615.375936074137 3348.1132363918855
1616.1302262328118 3447.823784905892
1616.8843335503425 3408.6274147127747
1617.638258074854 3311.577278506537
1618.391999854457 3470.8033845908258
1619.1455589372363 3463.6411353094745
1619.8989353712623 3408.2928526837386
1620.65212920458 3302.1753714415295
1621.4051404852235 3447.8065347184274
1622.1579692611976 3393.653183658982
1622.9106155804966 3265.8265693135404
1623.663079491087 3376.001269558835
1624.4153610409248 3395.5288382550184
1625.1674602779385 3306.5975584662565
1625.9193772500403 3178.8027186223453
1626.6711120051277 3396.1814788916986
1627.4226645910676 3354.182472233696
1628.174035055721 3216.17580074408
1628.9252234469168 3239.7056049187017
1629.676229812474 3282.7567475413066
1630.4270542001905 3593.8915916928354
1631.1776966578382 3309.3330408074253
1631.9281572331747 3418.7050827717553
1632.678435973945 3353.7193867055234
1633.4285329278573 3346.6283963096057
1634.1784481426203 3346.4236270124807
1634.9281816659113 3395.2758337078276
1635.677733545388 3466.6754861298664
1636.4271038286934 3291.148139281874
1637.176292563452 3267.0336216644837
1637.9252997972635 3376.3150277608743
1638.674125577716 3457.9410218301905
1639.4227699523672 3494.0821628919425
1640.171232968767 3292.6387987347575
1640.9195146744423 3377.6495972863363
1641.6676151168977 3398.2211406013544
1642.4155343436178 3499.7662131336233
1643.1632724020765 3449.813855258012
1643.9108293397167 3431.0768271265906
1644.658205203974 3301.682320614148
1645.4054000422566 3610.2326435889895
1646.1524139019566 3467.0341981121173
1646.8992468304423 3429.770916316679
1647.6458988750728 3324.088213989607
1648.3923700831765 3553.2909072650014
1649.1386605020743 3438.8604575278114
1649.8847701790564 3549.920104216406
1650.6306991614038 3489.223121664657
1651.3764474963682 3481.366238763401
1652.1220152311944 3405.8945993753355
1652.867402413096 3496.2095052807576
1653.6126090892776 3451.518785562423
1654.3576353069184 3534.641931573544
1655.1024811131829 3522.068035061434
1655.8471465552066 3561.79171388088
1656.5916316801213 3587.1431610157174
1657.3359365350298 3457.240470874447
1658.0800611670165 3385.9475401498084
1658.824005623148 3499.3001921288333
1659.5677699504722 3441.599850275772
1660.3113541960192 3451.1539888127672
1661.054758406799 3491.6344038717375
1661.7979826297997 3284.0088249739683
1662.5410269119966 3310.801097392424
1663.283891300338 3447.429625272008
1664.0265758417645 3390.1777267694024
1664.7690805831826 3335.414993194538
1665.5114055714948 3404.7845108395
1666.2535508535748 3445.036626655524
1666.9955164762814 3183.9900601864897
1667.7373024864555 3284.5761320559927
1668.478908930916 3253.768500856943
1669.220335856462 3049.3976903033017
1669.9615833098778 3221.9462015828944
1670.7026513379296 3039.09694902381
1671.44353998736 3202.558923231218
1672.1842493048916 3226.808403247042
1672.9247793372379 3115.925830139546
1673.6651301310812 3089.302979780392
1674.4053017330934 3072.904451870072
1675.1452941899242 3129.570372660742
1675.885107548207 2922.5225425196422
1676.6247418545518 3020.778110714599
1677.3641971555535 3138.485522009297
1678.1034734977893 3043.864730075499
1678.8425709278108 3083.833564765503
1679.5814894921605 3144.4796666333295
1680.320229237359 2858.3999906559293
1681.0587902098978 3100.678946996505
1681.7971724562685 2978.823749259508
1682.5353760229264 3013.0973407545366
1683.2734009563173 2887.3452303778513
1684.0112473028657 2961.991340607184
1684.7489151089794 2927.789102674082
1685.4864044210462 2938.4060618957556
1686.2237152854377 2845.082693906629
1686.960847748498 2837.1339568161375
1687.6978018565642 2893.0381914707805
1688.434577655944 2813.670315073447
1689.1711751929379 2930.816667940174
1689.9075945138156 2801.3993497271777
1690.6438356648396 2861.381143985878
1691.3798986922448 2727.9409601076622
1692.1157836422499 2689.49979447945
1692.851490561059 2791.4081162828465
1693.587019494853 2742.346844334234
1694.3223704897991 2709.063303537694
1695.0575435920364 2611.332354274089
1695.792538847696 2782.816934146702
1696.527356302886 2701.6111181402007
1697.2619960036936 2676.576435274734
1697.9964579961907 2571.112060536861
1698.730742326432 2378.5323183912515
1699.4648490404488 2543.042542154548
1700.1987781842563 2684.345624083601
1700.9325298038548 2637.5185479541456
1701.6661039452174 2683.0852024828678
1702.3995006543082 2687.70392172299
1703.1327199770658 2685.094252756856
1703.865761959416 2604.724479846256
1704.598626647261 2752.327027616071
1705.3313140864866 2551.4706214318753
1706.0638243229587 2595.653000908159
1706.7961574025303 2654.703566082062
1707.528313371029 2607.57535186505
1708.260292274268 2446.5362118665603
1708.9920941580403 2605.8357144721463
1709.7237190681226 2433.8482909867876
1710.4551670502697 2585.60218784285
1711.18643815022 2359.032932008026
1711.9175324136959 2574.469010169043
1712.6484498863938 2426.965286710957
1713.379190614005 2483.4025544531823
1714.109754642188 2624.7145719833106
1714.8401420165883 2420.2577570645926
1715.570352782839 2321.9531338888505
1716.3003869865497 2625.4377389658102
1717.0302446733076 2530.2646372641047
1717.7599258886876 2436.376923855451
1718.4894306782444 2628.8155588570417
1719.2187590875183 2405.537265599821
1719.9479111620203 2438.979624110282
1720.6768869472544 2459.752787068073
1721.4056864887025 2575.674086005201
1722.1343098318284 2564.413417516099
1722.8627570220742 2508.889964664192
1723.591028104871 2399.192206568663
1724.3191231256242 2413.9558872003986
1725.0470421297232 2343.6379011745757
1725.7747851625427 2438.5857486579125
1726.5023522694337 2459.675016248335
1727.2297434957363 2513.0058842249505
1727.9569588867635 2215.7978517646156
1728.6839984878152 2459.7148668426703
1729.4108623441734 2259.602103387627
1730.1375505011038 2513.2096539588138
1730.8640630038426 2432.039033849712
1731.5903998976264 2392.6735586338627
1732.316561227657 2521.6022308830884
1733.0425470391274 2327.432009143353
1733.7683573772065 2426.5900829756206
1734.4939922870508 2391.5328572237204
1735.2194518137949 2370.012433794129
1735.9447360025606 2366.5880440565857
1736.669844898439 2343.923589529052
1737.3947785465189 2324.0834872279293
1738.1195369918605 2283.380853738391
1738.8441202795093 2248.535987062705
1739.5685284544943 2363.3776104512995
1740.292761561821 2355.769801854459
1741.0168196464838 2369.4831693165893
1741.7407027534518 2307.2981839894683
1742.464410927687 2329.3973113734974
1743.187944214118 2426.0151634351596
1743.9113026576688 2303.2994085071587
1744.634486303241 2375.7242810760113
1745.3574951957125 2356.1485888307375
1746.0803293799509 2301.2887947587897
1746.8029889008048 2244.140661294559
1747.5254738031017 2449.1679601954147
1748.2477841316504 2254.772588474786
1748.969919931249 2277.904069444633
1749.6918812466665 2101.508508839984
1750.4136681226646 2368.430495925867
1751.1352806039777 2394.8774946678927
1751.856718735331 2179.374128677137
1752.5779825614281 2338.6520218716355
1753.2990721269507 2276.7459761255323
1754.0199874765676 2314.371634930996
1754.7407286549314 2200.844295275201
1755.4612957066693 2250.0115697729034
1756.1816886763954 2263.1535252240947
1756.9019076087097 2329.995460703258
1757.6219525481865 2359.906051848005
1758.3418235393856 2301.131469108776
1759.061520626854 2275.754743784123
1759.7810438551096 2353.62526503974
1760.5003932686614 2236.3180434267133
1761.2195689119999 2334.576957074337
1761.938570829594 2178.0104032876316
1762.657399065898 2174.4953014481416
1763.376053665348 2298.381931720016
1764.0945346723602 2180.5008107316967
1764.812842131334 2352.1149029282933
1765.5309760866512 2212.374032016431
1766.2489365826787 2225.4045955539123
1766.9667236637597 2262.2313917495603
1767.684337374223 2129.4645894457826
1768.401777758383 2044.7278746164563
1769.1190448605284 2306.4685456206043
1769.836138724937 2151.3892487719704
1770.5530593958665 2303.714301455039
1771.2698069175603 2289.656689967424
1771.9863813342326 2240.5524221154524
1772.702782690094 2246.930277653348
1773.4190110293293 2374.240287961732
1774.1350663961111 2295.906238281549
1774.8509488345844 2242.7635773573347
1775.5666583888924 2274.005239176241
1776.2821951031437 2311.5678190558033
1776.9975590214362 2237.1870880939227
1777.7127501878585 2337.9657197854235
1778.4277686464684 2213.9629693925685
1779.1426144413108 2285.4381991826517
1779.8572876164162 2188.7417068907316
1780.571788215797 2237.3183113310765
1781.2861162834415 2324.6644864709683
1782.0002718633277 2232.8658144572587
1782.7142549994132 2194.016484129179
1783.4280657356376 2274.292841128478
1784.141704115922 2148.8763852931297
1784.855170184177 2126.430790331903
1785.5684639842839 2227.425996295344
1786.2815855601148 2109.365672951078
1786.9945349555237 2286.446553111905
1787.707312214343 2272.775803334859
1788.4199173803918 2157.9394567515233
1789.132350497468 2141.237524611194
1789.8446116093583 2214.0073645188827
1790.556700759822 2196.8680468938105
1791.2686179926077 2068.3048182061675
1791.9803633514493 2163.508013717179
1792.6919368800554 2116.183147287352
1793.4033386221236 2237.70875061885
1794.1145686213295 2275.261638754253
1794.8256269213307 2292.3997186172255
1795.536513565774 2213.7216224678496
1796.247228598284 2140.61011581537
1796.9577720624693 2028.7515265957252
1797.6681440019165 2185.2887176499084
1798.3783444602013 2155.3925477760513
1799.0883734808776 2226.5987100843454
1799.7982311074884 2248.3774214813993
1800.5079173835475 2121.6266481745065
1801.2174323525633 2282.551545214576
1801.9267760580187 2119.854365346535
1802.635948543386 2175.000194752639
1803.3449498521113 2202.8558210528618
1804.0537800276325 2189.3273946021554
1804.7624391133668 2192.333591628373
1805.47092715271 2105.0626841039993
1806.1792441890484 2125.50213210205
1806.8873902657433 2159.298723360069
1807.5953654261448 2152.5180102114314
1808.3031697135812 2097.574391397446
1809.0108031713662 2184.7078862766684
1809.71826584279 2059.7719028031765
1810.425557771141 2007.8489007971261
1811.1326789996747 2365.5823112567455
1811.839629571632 2202.6953898788847
1812.5464095302468 2065.369517458911
1813.2530189187182 2212.2985414238065
1813.959457780249 2088.0506187338688
1814.6657261580076 2170.737539519071
1815.371824095153 2171.6475290218436
1816.0777516348262 2258.677526835567
1816.78350882015 2136.839293495269
1817.4890956942272 2083.551200517623
1818.1945123001533 2103.086185694962
1818.8997586809928 2141.1048366497844
1819.6048348798067 2153.1989012606587
1820.3097409396287 1995.9261037048807
1821.0144769034796 2136.1694628727237
1821.7190428143622 2075.885605594599
1822.423438715261 2256.354138105253
1823.1276646491478 2097.5709526129517
1823.8317206589727 2200.660423697967
1824.5356067876692 2172.65129103226
1825.2393230781581 2042.8877610200936
1825.942869573335 2103.0072439384226
1826.646246316086 2054.6958010111007
1827.3494533492758 2140.929793812547
1828.052490715756 2190.2307616563735
1828.7553584583547 2061.240027479301
1829.458056619891 2090.459997909415
1830.1605852431585 2081.0487343950876
1830.8629443709433 2068.3517260801273
1831.5651340460063 2105.457027959569
1832.2671543110919 2178.1173838034215
1832.9690052089318 2062.901218914758
1833.6706867822395 2020.2866137813028
1834.3721990737104 2275.930918317047
1835.0735421260233 2127.394066231812
1835.774715981841 2154.094249874298
1836.4757206838058 2175.4016791629447
1837.1765562745459 1874.094600762533
1837.8772227966747 1883.4311222590609
1838.5777202927839 2150.5751442207866
1839.2780488054523 2116.341920492571
1839.9782083772352 1951.3024648231087
1840.6781990506806 2242.82458857597
1841.378020868313 2163.9624732825073
1842.0776738726418 2080.75411460149
1842.777158106157 2093.189286436744
1843.4764736113375 2032.1153109744191
1844.1756204306403 2069.489470631429
1844.8745986065078 2075.654765630071
1845.5734081813607 1972.6940880450552
1846.2720491976124 1919.2744353360636
1846.970521697649 2148.315225424095
1847.6688257238511 2044.6539245009985
1848.3669613185684 2124.9659841663215
1849.0649285241452 2034.2170937832846
1849.7627273829057 2033.4225348427601
1850.460357937156 2089.7527896002534
1851.1578202291857 1911.210692837743
1851.8551143012664 2121.5356407925983
1852.5522401956569 2133.3309434791804
1853.2491979545957 2083.580314032301
1853.9459876203055 2014.401503724081
1854.6426092349902 1977.3903146088737
1855.3390628408451 1919.9154596673748
1856.0353484800362 2175.729117620194
1856.7314661947203 1985.6789372419594
1857.4274160270397 1969.0768163632492
1858.123198019115 2032.0336133964345
1858.8188122130487 2143.5534689479273
1859.5142586509319 1955.5611147943396
1860.209537374838 2120.0400518631313
1860.9046484268183 2070.489634333059
1861.599591848917 2144.1081474761595
1862.294367683151 1957.1866317840093
1862.988975971528 1986.4302996907104
1863.6834167560355 1972.191995704222
1864.3776900786452 2094.6048899335537
1865.0717959813119 2060.3666040934554
1865.7657345059724 2041.7989238111397
1866.4595056945564 2090.4378575906194
1867.1531095889586 2012.6092324255128
1867.846546231076 2091.1572508992203
1868.5398156627743 2204.011546633178
1869.2329179259123 1987.0588039810123
1869.9258530623283 2171.011201845147
1870.618621113843 2074.6249675340014
1871.3112221222636 1992.057891805104
1872.0036561293764 2008.543739800285
1872.695923176956 2097.083056760197
1873.3880233067594 2122.4026041048505
1874.0799565605212 2071.184617759832
1874.7717229799673 2040.1826765207747
1875.4633226068036 2180.211180109862
1876.1547554827175 2018.737190807645
1876.8460216493859 1939.1381024043967
1877.5371211484617 2029.9826364412954
1878.2280540215852 1997.126379166668
1878.9188203103804 1953.5639436221395
1879.6094200564548 2135.819784114539
1880.299853301396 1886.5583944513764
1880.9901200867826 1969.6161907681285
1881.6802204541673 2036.7941724734314
1882.3701544450942 2136.027511893903
1883.059922101087 2014.8465413800982
1883.7495234636517 2096.3425272593977
1884.4389585742792 1983.7993702296267
1885.1282274744517 1983.3485105528412
1885.8173302056166 2265.5339940041126
1886.506266809225 2015.4377434888222
1887.195037326701 1863.2400416212156
1887.8836417994517 2175.4649406559556
1888.5720802688702 2278.963186810661
1889.260352776333 1937.965141899023
1889.9484593632042 1920.6530357706974
1890.63640007082 2039.5739709562654
1891.3241749405151 1932.7042505103695
1892.0117840135954 2042.916040644471
1892.6992273313572 1944.0006089493654
1893.3865049350788 1972.5838259161478
1894.0736168660223 2133.452725685718
1894.7605631654333 2027.9354069913493
1895.4473438745408 1845.561091493889
1896.133959034556 2187.6911546293363
1896.820408686679 1900.2997493166818
1897.506692872088 2096.4561909869485
1898.192811631945 2011.8339775450308
1898.8787650073991 2043.7465919283027
1899.5645530395832 2139.985632213654
1900.2501757696118 2097.073932505345
1900.9356332385796 1972.7265978805922
1901.620925487574 1949.8724361102832
1902.3060525576602 2098.624201379988
1902.9910144898859 2025.2814165836244
1903.6758113252872 1971.00426101851
1904.3604431048789 1976.7655555344584
1905.0449098696663 1982.587578266423
1905.7292116606295 2036.7812972310464
1906.4133485187394 1954.1079639062186
1907.0973204849488 1705.7510190873477
1907.7811276001976 2007.7478222703878
1908.4647699053967 1987.8414744918232
1909.1482474414588 2017.3323135653882
1909.8315602492694 1705.3269456550297
1910.5147083696957 2010.9423634339655
1911.1976918436012 1879.3034766026515
1911.880510711815 2031.6993442240134
1912.5631650151681 1915.3429169332237
1913.2456547944657 1966.4863758178162
1913.927980090495 1927.2990452287308
1914.6101409440362 1936.969730900557
1915.2921373958416 1840.467631412921
1915.9739694866603 1985.9968010823454
1916.655637257214 2087.3792959354514
1917.3371407482136 1975.1149508741594
1918.0184800003572 2069.2288159998584
1918.6996550543154 2029.0185007758366
1919.3806659507554 1946.9221055983865
1920.0615127303208 2210.8300563209027
1920.7421954336423 2005.01016786742
1921.4227141013343 1970.7900569818244
1922.103068773993 2016.4565490519446
1922.783259492202 2035.2208165941702
1923.4632862965227 1961.9323322501987
1924.1431492275078 1850.4660711842175
1924.8228483256917 1930.0058832556304
1925.5023836315922 1984.57035930426
1926.1817551857057 1803.1539094686837
1926.8609630285227 1983.0303987427865
1927.5400072005123 2085.690460697434
1928.218887742125 1898.5535174635122
1928.8976046938005 1768.3220231926512
1929.5761580959588 1961.435819421998
1930.2545479890086 2044.330783501727
1930.9327744133352 2016.6224857516675
1931.6108374093164 2000.1906220377975
1932.2887370173066 2220.161361996291
1932.9664732776473 1704.9870100537435
1933.6440462306673 2003.3731864927236
1934.3214559166754 1897.8052135689493
1934.9987023759659 1934.8230214622313
1935.675785648813 1927.3659917618666
1936.3527057754836 1833.6080309054
1937.029462796223 1998.7915700575468
1937.70605675126 1980.040715644492
1938.3824876808085 1928.9579376730417
1939.058755625072 1676.8692975814097
1939.7348606242267 2005.7981206350055
1940.4108027184448 1949.8870851201427
1941.0865819478713 2161.407282012062
1941.7621983526478 1890.2789001578883
1942.4376519728921 1788.9934487666421
1943.1129428487038 1793.8795881739275
1943.7880710201734 1953.2799826067615
1944.4630365273733 1960.183024978092
1945.1378394103576 1901.6231461477018
1945.8124797091714 2089.3828635069867
1946.4869574638324 1650.9438521569941
1947.161272714353 1883.0831876447032
1947.8354255007234 2012.2854513859686
1948.5094158629272 1946.450955475658
1949.1832438409183 1943.362058537854
1949.8569094746435 1977.0558426872672
1950.530412804037 1910.0158444898068
1951.2037538690092 1977.6781884460847
1951.8769327094578 1868.7411965910883
1952.5499493652678 1860.6199724364044
1953.222803876306 1816.4266786456676
1953.895496282421 1872.3197431897158
1954.5680266234522 1788.9294659149048
1955.2403949392155 1927.544135308767
1955.9126012695142 1735.6964707256843
1956.5846456541403 1801.1999753392884
1957.2565281328643 1820.918090927437
1957.9282487454457 1981.4207763944746
1958.5998075316202 2094.3188333494577
1959.27120453112 2036.2263629665456
1959.9424397836501 1860.588878300834
1960.613513328908 1949.3250209579492
1961.2844252065697 2047.0169440986817
1961.9551754563017 1939.6373027138802
1962.6257641177453 1849.6961916483226
1963.29619123054 1777.2324879751518
1963.966456834296 1787.2106623678071
1964.6365609686181 1721.3445380409175
1965.306503673086 1926.1645780526956
1965.976284987275 1821.7627962104966
1966.645904950734 1865.0763095512134
1967.315363603002 1851.1621133223834
1967.9846609836077 1987.1304248252975
1968.6537971320486 1994.7887496422081
1969.3227720878222 1818.705395908896
1969.9915858904042 1800.51146948003
1970.660238579252 1902.884443578716
1971.3287301938108 1939.2231551069035
1971.997060773514 1801.7264920146947
1972.665230357772 1979.9624250757638
1973.3332389859843 1687.2965219105586
1974.0010866975335 1811.573371100716
1974.6687735317864 1927.2217372721927
1975.3362995280932 1983.5019486825647
1976.003664725793 1789.3967494500241
1976.6708691642052 1678.38746104042
1977.3379128826364 1853.6594139303852
1978.004795920373 1879.6862523259965
1978.6715183166925 2126.831315207666
1979.3380801108524 1725.3356045678884
1980.0044813420973 1965.7425996758818
1980.6707220496555 1785.386613158822
1981.3368022727373 1840.62893390616
1982.0027220505417 1892.1113195538305
1982.66848142225 1804.760560519954
1983.3340804270283 1834.5327802751879
1983.999519104027 1864.4348720179412
1984.6647974923835 1973.6949358131108
1985.329915631215 1928.465134294772
1985.99487355963 1907.2172031579016
1986.6596713167146 1774.136210253019
1987.3243089415428 1741.4650635633466
1987.9887864731754 2019.1997435339097
1988.6531039506553 1732.3375944559198
1989.3172614130071 1994.3642598275942
1989.9812588992481 2027.4348430327634
1990.645096448372 1882.5487741843674
1991.3087740993633 2046.2662058472324
1991.9722918911848 1785.6551081093141
1992.635649862792 1840.0730829859083
1993.2988480531185 1948.4476871989489
1993.9618865010852 2139.428065438531
1994.6247652455968 1796.7198555235827
1995.287484325545 1726.3545311838457
1995.9500437798033 1709.962844268842
1996.6124436472292 1693.6014586318586
1997.2746839666706 1968.5549980172539
1997.936764776954 1712.022429261202
1998.598686116895 1723.302996271122
1999.2604480252903 2013.5978821854042
1999.9220505409212 1804.3335671226603
2000.5834937025593 1887.5186488077525
2001.2447775489582 1827.694992818929
2001.9059021188514 1627.5078513522922
2002.5668674509616 1913.4647928039544
2003.2276735839987 1898.4321711517525
2003.8883205566508 1888.4219099839527
2004.5488084075987 1839.072118998487
2005.2091371755014 1727.6311008816763
2005.8693068990033 1877.891744900464
2006.5293176167397 1898.045411775653
2007.1891693673224 1822.0116280145517
2007.848862189354 1579.997283104511
2008.5083961214223 1830.9676033158898
2009.1677712020955 1720.7714304617598
2009.8269874699254 1724.9479551778186
2010.4860449634598 1904.3658994417747
2011.1449437212177 1528.0134661928594
2011.8036837817108 1857.316023999431
2012.4622651834325 1891.4114464266106
2013.1206879648653 1951.8933606690607
2013.7789521644736 1925.461464891097
2014.4370578207036 1761.2088678628268
2015.0950049719922 1783.8920740059082
2015.7527936567585 1829.8020243803887
2016.4104239134067 1714.178693838093
2017.067895780323 1844.6207021191246
2017.725209295886 1746.5788594815688
2018.3823644984514 1933.5543178752553
2019.0393614263648 1787.4869473576418
2019.6962001179545 1614.409441984923
2020.3528806115355 1877.523785933046
2021.0094029454067 1619.8520489432858
2021.6657671578487 1805.7702976394655
2022.321973287133 1872.4898174692967
2022.9780213715148 1769.1929592617282
2023.6339114492293 1850.1832417653993
2024.2896435585026 1796.1678222870548
2024.9452177375442 1706.5595919891996
2025.600634024544 1892.6731969677658
2026.2558924576842 1781.4493533026555
2026.9109930751292 1918.6371820728557
2027.565935915025 1690.080764213403
2028.2207210155066 1908.957837275379
2028.8753484146964 1811.0804190004478
2029.529818150695 1761.8058712499837
2030.1841302615903 1862.7741636141477
2030.8382847854573 1641.65582919045
2031.4922817603601 1622.0850270426133
2032.1461212243357 1948.3796079829222
2032.7998032154192 1502.1511250313627
2033.4533277716218 1830.826919515499
2034.1066949309443 1844.6123948311674
2034.7599047313688 1843.9627829238757
2035.4129572108704 2032.4862656532034
2036.0658524074006 1969.0406314005845
2036.7185903589016 1756.7257637636187
2037.3711711032956 1794.5527031360616
2038.023594678496 1796.1479923088787
2038.675861122394 1759.245752707628
2039.3279704728757 1870.6968326758629
2039.9799227678031 1580.4933592050456
2040.6317180450278 1680.0705657286665
2041.2833563423865 1734.422573778273
2041.9348376977014 1794.4575174427039
2042.5861621487784 1768.84692714187
2043.2373297334088 1623.7909805561242
2043.8883404893695 1796.263259453973
2044.5391944544208 1996.8407010979004
2045.1898916663158 1762.740612884752
2045.8404321627804 1942.0178212876679
2046.4908159815368 1701.560520265331
2047.1410431602853 1930.0254876469885
2047.7911137367173 1594.838343085527
2048.441027748504 1849.0805220378697
2049.090785233302 1811.7951416991189
2049.7403862287592 1701.4831553105275
2050.389830772503 1811.1857635498357
2051.0391189021466 1615.4509716354
2051.688250655294 1651.1611048083146
2052.337226069527 1732.010621621778
2052.986045182417 1717.431739561544
2053.634708031521 1679.3181278990735
2054.283214654375 1881.378931758119
2054.931565088511 1822.65412530123
2055.579759371436 1763.8272861857672
2056.2277975406523 1718.9423084281636
2056.8756796336384 2016.544986434929
2057.5234056878617 1783.4974122172273
2058.1709757407752 1826.2239061794
2058.8183898298194 1786.0460353446172
2059.465647992416 1656.1476394797621
2060.1127502659747 1825.2016308359555
2060.759696687888 1732.4711443207786
2061.4064872955405 1864.1296020352718
2062.053122126292 1879.149478766145
2062.699601217497 1604.0576712114937
2063.345924606485 1797.286438229578
2063.992092330587 1898.852799882754
2064.638104427102 1858.7198932752246
2065.283960933324 1845.8497463218766
2065.92966188653 1838.6734612423184
2066.5752073239855 1745.151161624388
2067.2205972829397 1518.5597176482386
2067.86583180062 1697.7799395690522
2068.5109109142522 1684.897525512557
2069.15583466104 1742.0261703903616
2069.8006030781708 1799.2097545677868
2070.445216202821 1721.424446500636
2071.089674072153 1996.913598484221
2071.7339767233116 1838.1655875179342
2072.3781241934303 1708.9506298057
2073.0221165196253 1877.5724106681027
2073.6659537390024 1831.7212320704543
2074.3096358886505 1899.0178090584238
2074.953163005637 1663.4721084044988
2075.596535127028 1583.2784876198377
2076.2397522898664 1624.3613787926865
2076.882814531182 1752.565407631912
2077.5257218879924 1801.8359274347936
2078.1684743973 1661.8963777758065
2078.8110720960885 1569.9605843620554
2079.453515021336 1916.5756475629682
2080.095803209997 1839.532365186365
2080.7379366990135 1697.9592915270528
2081.37991552532 1578.048734835284
2082.0217397258275 1791.7464448285286
2082.6634093374414 1653.3396262310835
2083.3049243970418 1707.2516531836286
2083.9462849415067 1561.9071704041285
2084.587491007689 1816.7983110292018
2085.2285426324324 1864.394876633051
2085.869439852564 1885.5991171989353
2086.510182704902 1475.5291483559329
2087.1507712262483 1733.7814997365797
2087.791205453381 1676.1809616198123
2088.4314854230743 1771.492435321122
2089.0716111720867 1769.4625547647386
2089.7115827371617 1640.8574005329094
2090.351400155023 1657.3841725619345
2090.991063462385 1674.0245231667147
2091.6305726959527 1731.5516767545512
2092.2699278924047 1915.1798589352106
2092.9091290884153 1484.2627236612495
2093.548176320641 1724.2002380247134
2094.187069625721 1816.1452590283195
2094.8258090402887 1649.540090786814
2095.464394600951 1641.9772769563722
2096.102826344313 1630.8810362754275
2096.741104306955 1808.8982175381057
2097.379228525453 1562.7746786784094
2098.017199036358 1617.4927682000234
2098.6550158762147 1711.2091453059002
2099.2926790815527 1648.1855254297484
2099.9301886888825 1760.9935469733414
2100.5675447347076 1662.3624470097784
2101.2047472555114 1821.5558586264356
2101.841796287761 1784.3890191918267
2102.47869186792 1864.5862034040133
2103.1154340324265 1695.6014898590106
2103.752022817709 1841.2929343517346
2104.388458260184 1802.8508117804213
2105.024740396251 1733.3665533695232
2105.660869262292 1662.557158373405
2106.296844894685 1711.0279083245216
2106.93266732978 1660.4242562138206
2107.5683366039284 1590.5912808401342
2108.2038527534532 1627.2857775476919
2108.8392158146726 1788.891926557951
2109.4744258238843 1860.8315714943244
2110.1094828173755 1614.199865524732
2110.744386831422 1874.0556967832447
2111.3791379022787 1702.8421015646938
2112.01373606619 1784.806519050504
2112.648181359389 1529.5903229869605
2113.28247381809 1796.7637442653045
2113.916613478492 1558.9888458283435
2114.550600376786 1724.7626930217907
2115.1844345491445 1910.2787012203146
2115.818116031729 1634.9994639736815
2116.451644860679 1693.9533788447748
2117.085021072133 1543.2488084939564
2117.718244702204 1510.5392412808503
2118.3513157869984 1718.3011401829851
2118.984234362604 1519.2869965221837
2119.617000465092 1697.9093336716803
2120.249614130529 1920.8542071894412
2120.8820753949585 1745.9257394738088
2121.5143842944162 1646.8052571275698
2122.14654086492 1742.7847455531519
2122.7785451424734 1697.8217826567663
2123.4103971630702 1541.0305172510648
2124.042096962681 1738.7142169385734
2124.6736445772767 1563.424092955449
2125.305040042802 1574.195879069294
2125.936283395191 1728.4231456998727
2126.567374670365 1549.928129873683
2127.198313904233 1558.0186620621068
2127.8291011326855 1551.0526134744655
2128.4597363916037 1543.8876716370557
2129.0902197168507 1711.8374400837092
2129.720551144279 1591.2401623466828
2130.3507307097225 1831.431241206036
2130.980758449008 1720.473186084265
2131.6106343979427 1627.9861327702852
2132.2403585923203 1822.1971864745658
2132.8699310679276 1836.8377692587346
2133.499351860526 1642.9507258467377
2134.1286210058715 1869.8483196628622
2134.7577385397053 1683.3374637409834
2135.3867044977487 1628.0077305225482
2136.0155189157176 1770.4154145717516
2136.644181829308 1611.357914297781
2137.2726932742025 1668.9537580888987
2137.901053286074 1860.916447978529
2138.5292619005777 1713.1287181863452
2139.1573191533535 1702.069883199533
2139.7852250800315 1820.5409383467454
2140.4129797162295 1776.9108230109239
2141.0405830975433 1512.7759548735276
2141.6680352595613 1854.6653773970527
2142.2953362378576 1713.8306857216744
2142.9224860679915 1592.9528816584834
2143.549484785508 1484.490592321363
2144.1763324259373 1794.799218566533
2144.803029024799 1749.6153158301854
2145.429574617594 1531.7900265326075
2146.0559692398165 1750.0960271467557
2146.682212926942 1457.9946738326757
2147.308305714432 1689.0233283853534
2147.9342476377333 1646.8119616822282
2148.5600387322847 1563.7867476228446
2149.185679033506 1699.703143405402
2149.8111685768017 1693.1914224876516
2150.4365073975678 1611.5907521067081
2151.061695531187 1675.521391390074
2151.686733013021 1762.723717727308
2152.311619878423 1562.4933500040158
2152.9363561627342 1652.4514301006989
2153.560941901278 1538.7895794148449
2154.1853771293663 1700.525832577702
2154.809661882293 1819.9767806017273
2155.433796195348 1712.01193221294
2156.0577801037944 1691.0909697029122
2156.681613642895 1604.4072750165506
2157.3052968478896 1706.626531796422
2157.928829754006 1633.9126684028374
2158.552212396462 1691.2024675428675
2159.1754448104566 1637.9123613957838
2159.7985270311783 1584.7273082517822
2160.4214590938027 1476.19510033466
2161.0442410334927 1544.4350042023457
2161.6668728853874 1676.1944114098108
2162.289354684628 1531.6326990023613
2162.911686466332 1793.0931635748232
2163.533868265602 1783.046298641409
2164.1559001175337 1671.819279216867
2164.7777820572046 1776.9614686283246
2165.399514119681 1409.6710375812845
2166.021096340013 1391.2751477324205
2166.6425287532384 1469.7456789633104
2167.263811394385 1548.4303498024979
2167.8849442984574 1710.0956996228517
2168.505927500455 1511.073104015359
2169.126761035366 1558.5027484117031
2169.7474449381552 1696.3860949534223
2170.367979243778 1476.1420728635694
2170.9883639871823 1550.2463937144455
2171.608599203293 1650.816393298998
2172.2286849270276 1848.8828090064658
2172.8486211932886 1750.017780544802
2173.4684080369625 1453.1808628863412
2174.0880454929265 1631.7980693713866
2174.7075335960417 1661.5690616460768
2175.3268723811543 1719.189969814253
2175.9460618831 1889.5421745707922
2176.565102136701 1600.264647447173
2177.1839931767627 1675.3883375297344
2177.802735038078 1649.6955542220876
2178.421327755432 1398.953457455698
2179.0397713635866 1422.1145469615926
2179.658065897298 1445.2833935580234
2180.276211391305 1574.007485619627
2180.8942078803357 1724.3664568564673
2181.5120553991 1583.0095761811356
2182.129753982299 1512.3640432550958
2182.7473036646206 1693.9386081010325
2183.3647044807367 1597.7726579465177
2183.9819564653044 1509.5163980089187
2184.599059652968 1749.8103863017545
2185.216014078367 1704.7625979449117
2185.832819776113 1749.372261817188
2186.4494767808137 1793.9877218369395
2187.065985127063 1900.1315686900525
2187.682344849436 1502.3189603027436
2188.298555982501 1782.9967164202328
2188.9146185608097 1684.0438470122347
2189.530532618901 1652.800559413102
2190.1462981912937 1679.9636471654037
2190.761915312507 1573.8987044765045
2191.377384017036 1629.7572071086793
2191.9927043393654 1684.4298456937588
2192.6078763139667 1395.4783808225548
2193.2228999753006 1719.1647191562504
2193.837775357808 1414.7026009304948
2194.452502495922 1518.7790387248385
2195.0670814240602 1635.389647698507
2195.6815121766285 1580.8221553376613
2196.2957947880186 1795.1633370278337
2196.9099292926057 1678.8171677455805
2197.523915724758 1800.202229524512
2198.137754118825 1749.7935787131883
2198.7514445091456 1568.400646285047
2199.3649869300443 1763.3885074762825
2199.9783814158327 1613.511177502306
2200.5916280008096 1831.273474502128
2201.2047267192593 1634.117379012631
2201.8176776054515 1619.5373418699137
2202.430480693649 1453.592253780412
2203.0431360180955 1869.7764365744981
2203.6556436130195 1680.1237157713629
2204.268003512645 1495.5966780454098
2204.8802157511727 1561.9021333697774
2205.492280362796 1829.772915888092
2206.1041973816937 1710.6615028868935
2206.715966842032 1784.6804452153392
2207.3275887779655 1677.6968531377454
2207.93906322363 1570.25351942715
2208.550390213153 1794.5091492572187
2209.1615697806465 1541.2924704407196
2209.7726019602105 1477.7468281641814
2210.3834867859277 1427.967972921808
2210.9942242918787 1603.851081985846
2211.6048145121167 1562.2100545438834
2212.2152574806914 1602.4296642035224
2212.825553231638 1642.7029550155544
2213.435701798975 1920.7618996067754
2214.045703216707 1597.7953845485426
2214.655557518832 1594.7274306730337
2215.2652647393297 1374.9906276713677
2215.874824912169 1407.6408274094447
2216.4842380713 1500.2028633576851
2217.09350425067 1585.9888848918959
2217.7026234842033 1323.0691068069166
2218.311595805819 1695.5374900369916
2218.9204212494133 1570.5022895803
2219.52909984888 1965.4101920841088
2220.137631638092 1890.228585514728
2220.7460166509154 1814.771496029612
2221.354254921198 1733.3452976255717
2221.9623464827764 1703.387769714322
2222.5702913694713 1529.7114662186864
2223.178089615096 1574.2703447297667
2223.7857412534486 1616.0343504470723
2224.39324631831 1552.7068227795837
2225.000604843457 1450.295853645934
2225.607816862641 1646.3558779144005
2226.214882409611 1607.2378218079177
2226.8218015180973 1695.1358098457476
2227.4285742218217 1564.643183033339
2228.0352005544864 1603.2000224259268
2228.6416805497847 1567.883767792157
2229.248014241399 1633.896839779139
2229.8542016629945 1376.7632245335649
2230.460242848223 1753.118758475755
2231.0661378307304 1566.9461776364403
2231.671886644139 1663.7225192971023
2232.277489322065 1525.2924216653862
2232.8829458981127 1331.4643617218892
2233.48825640587 1713.4555955226283
2234.0934208789095 1868.8734560943417
2234.6984393507955 1903.6282920611989
2235.3033118550793 1728.5794051961602
2235.9080384252975 1697.751456893975
2236.5126190949723 1488.841305261221
2237.1170538976166 1376.0733543977447
2237.721342866729 1521.9537381610646
2238.32548603579 1379.0567588793178
2238.9294834382763 1568.3677234268382
2239.533335107646 1445.0266831610509
2240.1370410773434 1436.6255742426292
2240.740601380803 1428.2062749733886
2241.3440160514474 1588.0101379509265
2241.9472851226783 1580.4754024662761
2242.550408627896 1340.4430002406657
2243.1533866004793 1649.401745759602
2243.756219073799 1613.9736043182622
2244.3589060812064 1318.832016826685
2244.961447656049 1479.49884336264
2245.5638438316564 1491.2041301654049
2246.166094641343 1730.8117873095525
2246.7682001184166 1630.3109649950336
2247.3701602961664 1468.8601390542672
2247.971975207871 1572.700486169084
2248.5736448867974 1477.683635762836
2249.175169366197 1712.467121177045
2249.7765486793123 1794.3146679887443
2250.3777828593684 1703.4329953723984
2250.9788719395783 1598.8841134821544
2251.579815953146 1568.6608069220943
2252.1806149332606 1533.8497400353558
2252.781268913097 1548.2284792502662
2253.381777925817 1567.0914084135463
2253.9821420045737 1547.112353189891
2254.5823611825035 1542.0953687999022
2255.1824354927303 1507.166318464217
2255.782364968365 1485.716809051311
2256.38214964251 1464.2839055122472
2256.9817895482483 1369.3670633960892
2257.5812847186553 1616.631868344506
2258.180635186791 1428.6361539834966
2258.779840985704 1699.0094991958654
2259.37890214843 1723.0674913542475
2259.97781870799 1673.3832686721944
2260.5765906973957 1578.392378199883
2261.175218149645 1502.8420553115795
2261.773701097718 1631.0355439436462
2262.3720395745895 1505.4456688447247
2262.970233613216 1188.9651873055136
2263.568283246548 1307.9929938249356
2264.1661885075137 1536.2443136042743
2264.763949429038 1549.4644218667017
2265.3615660440246 1697.7211765231236
2265.959038385374 1445.3327776384392
2266.5563664859637 1572.4984876461936
2267.153550378669 1497.6793988149102
2267.7505900963424 1439.5796949415158
2268.3474856718312 1599.3180733751801
2268.9442371379664 1591.733492112993
2269.5408445275643 1448.3657890666652
2270.1373078734377 1585.8984069431913
2270.7336272083758 1679.3680805352942
2271.32980256516 1402.4541347166055
2271.925833976562 1629.2341135741806
2272.5217214753357 1544.1883400509055
2273.117465094223 1458.9412706228836
2273.7130648659586 1504.9591675932647
2274.308520823257 1563.3703054150908
2274.903832998827 1825.2289433643978
2275.4990014253563 1170.1325268868777
2276.094026135528 1817.9262958147785
2276.6889071620117 1220.2059630956828
2277.2836445374614 1544.4159490550344
2277.878238294519 1548.7732213312734
2278.472688465812 1488.024167551252
2279.066995083962 1427.1333031659265
2279.6611581815705 1673.2168450667573
2280.255177791232 1772.2509637186636
2280.8490539455233 1871.5129941194791
2281.442786677013 1826.473368864587
2282.0363760182554 1817.2672217222225
2282.6298220017943 1396.9646162483814
2283.223124660155 1665.0699529456156
2283.816284025859 1563.8968369992676
2284.4093001314086 1776.6759037320157
2285.002173009292 1696.624440976281
2285.5949026919952 1616.382290697125
2286.1874892119777 1456.7190328632441
2286.7799326016993 1657.7324513282772
2287.3722328936 1452.0166097981528
2287.964390120109 1524.2376885353335
2288.556404313642 1387.0582084876964
2289.1482755066027 1660.8781951179249
2289.7400037313873 1368.84923740062
2290.3315890203703 1723.5042661584205
2290.9230314059205 1678.2713479035842
2291.5143309203904 1633.0172825196055
2292.1054875961236 1480.9505995614365
2292.6965014654506 1518.7646900079326
2293.287372560684 1531.376723932939
2293.878100914131 1715.507401335842
2294.468686558086 1610.9127141239567
2295.059129524827 1353.4185072951445
2295.649429846617 1760.9531595665644
2296.239587555716 1864.8537675831435
2296.8296026843636 1636.9706643890972
2297.419475264791 1811.0438565565346
2298.0092053292137 1750.3266856280304
2298.598792909839 1431.7933433603773
2299.1882380388597 1623.4447830253146
2299.777540748455 1834.498406677245
2300.3667010707904 1518.2052295942444
2300.9557190380256 1374.7051912572063
2301.544594682302 1592.1566725536118
2302.1333280357503 1640.3790367355691
2302.721919130485 1688.6827721823006
2303.3103679986198 1747.5952622089644
2303.898674672242 1465.6345112961103
2304.486839183437 1466.8414517097012
2305.0748615642697 1587.5045371972133
2305.6627418468015 1361.6458916670094
2306.2504800630704 1768.613790424546
2306.8380762451143 1497.3274968142182
2307.425530424949 1574.3361454580372
2308.012842634582 1651.5092847113544
2308.6000129060103 1499.2242562088538
2309.187041271214 1697.511653463028
2309.773927762164 1720.6241629494784
2310.3606724108213 1657.5292782951929
2310.9472752491274 1405.197717673936
2311.5337363090184 1503.2459059763382
2312.120055622414 1412.7707906561234
2312.706233221221 1322.073256788097
2313.2922691373424 1272.9169181025077
2313.8781634026564 1409.8229430571696
2314.463916049037 1547.0418365714834
2315.049527108342 1473.251840512521
2315.6349966124235 1657.745306005288
2316.2203245931123 1829.4517408817185
2316.8055110822315 1532.8451463292013
2317.3905561115935 1549.4310622400603
2317.9754597129977 1529.6560051365348
2318.560221918229 1493.2911408895231
2319.1448427590603 1616.0116695733645
2319.729322267256 1413.7941370749377
2320.313660474563 1613.285318541449
2320.8978574127195 1791.7433419557497
2321.481913113452 1705.8564649905875
2322.0658276084705 1774.9635770633217
2322.6496009294806 1844.3073968929014
2323.233233108165 1691.330989864967
2323.8167241762058 1651.8231410203757
2324.4000741652617 1479.592244305005
2324.983283106987 1699.9086097796503
2325.5663510330232 1818.0153214842169
2326.1492779749933 1703.8135203153367
2326.7320639645204 1585.7899220259699
2327.3147090332004 1681.5781598173114
2327.897213212629 1952.8921177484528
2328.4795765343843 1602.815069193188
2329.0617990300307 1553.095656401902
2329.643880731124 1657.2395023692068
2330.22582166921 1599.1303412592138
2330.807621875816 1646.0615381858613
2331.3892813824623 1598.2800065749586
2331.9708002206517 1603.1333754535317
2332.5521784218818 1565.6465683428085
2333.133416017634 1572.357596564882
2333.7145130393765 1728.8887946178256
2334.295469518571 1689.8643454630896
2334.876285486658 1582.552785282064
2335.456960975076 1302.5755678259043
2336.037496015242 1640.7903556370002
2336.6178906385667 1567.3732401333164
2337.198144876451 1629.1709354525547
2337.778258760278 1572.7636920907012
2338.3582323214214 1418.3288523362228
2338.938065591243 1836.0394356649165
2339.517758601087 1752.0316907756085
2340.0973113822965 1474.7789242757415
2340.676723966193 1290.029803470398
2341.255996384094 1476.1066675380468
2341.835128667295 1636.6259757626583
2342.4141208470883 1548.3183873822484
2342.992972954751 1378.4337907894578
2343.5716850215467 1629.4850289475792
2344.1502570787306 1595.5104046067884
2344.7286891575386 1561.391222828765
2345.3069812892045 1665.3232758177376
2345.885133504944 1534.412874816306
2346.4631458359618 1674.8193415840997
2347.04101831345 1527.8288489373938
2347.6187509685915 1666.5134417277288
2348.196343832553 1465.1596258118736
2348.7737969364935 1254.837288184088
2349.351110311558 1442.5177397875077
2349.9282839888765 1691.6557485192832
2350.5053179995757 1512.6973392169798
2351.0822123747585 1405.3182760916836
2351.658967145526 1367.9185867144117
2352.2355823429643 1330.5359778026454
2352.812057998144 1542.3580212992324
2353.3883941421263 1401.5797565384507
2353.9645908059647 1531.3814720928733
2354.540648020693 1682.6390339126297
2355.116565817336 1467.719431443897
2355.6923442269126 1490.5094065621756
2356.2679832804224 1553.9605318041306
2356.8434830088518 1214.401711080947
2357.41884344318 1328.9257203069587
2357.994064614377 1365.6718854518224
